*RAS_DATA_START
*RAS_HEADER_START
*CORR_POS_DB_NAME "DTEX_11112016"
*CORR_POS_GONIO_RADIUS ""
*CORR_POS_NODE_INDEX01 ""
*CORR_POS_NODE_INDEX02 ""
*CORR_POS_NODE_INDEX03 ""
*CORR_POS_NODE_INDEX04 ""
*CORR_POS_NODE_INDEX05 ""
*CORR_POS_NODE_INDEX06 ""
*CORR_POS_NODE_INDEX07 ""
*CORR_POS_NODE_INDEX08 ""
*CORR_POS_NODE_INDEX09 ""
*CORR_POS_NODE_INDEX10 ""
*CORR_POS_NODE_INDEX11 ""
*CORR_POS_NODE_LABEL01 "Si(111)"
*CORR_POS_NODE_LABEL02 "Si(220)"
*CORR_POS_NODE_LABEL03 "Si(311)"
*CORR_POS_NODE_LABEL04 "Si(400)"
*CORR_POS_NODE_LABEL05 "Si(331)"
*CORR_POS_NODE_LABEL06 "Si(422)"
*CORR_POS_NODE_LABEL07 "Si(511)"
*CORR_POS_NODE_LABEL08 "Si(440)"
*CORR_POS_NODE_LABEL09 "Si(531)"
*CORR_POS_NODE_LABEL10 "Si(620)"
*CORR_POS_NODE_LABEL11 "Si(533)"
*CORR_POS_NODE_POS_CALC01 "28.4137"
*CORR_POS_NODE_POS_CALC02 "47.2707"
*CORR_POS_NODE_POS_CALC03 "56.0883"
*CORR_POS_NODE_POS_CALC04 "69.0934"
*CORR_POS_NODE_POS_CALC05 "76.3385"
*CORR_POS_NODE_POS_CALC06 "87.9915"
*CORR_POS_NODE_POS_CALC07 "94.9137"
*CORR_POS_NODE_POS_CALC08 "106.67"
*CORR_POS_NODE_POS_CALC09 "114.054"
*CORR_POS_NODE_POS_CALC10 "127.508"
*CORR_POS_NODE_POS_CALC11 "136.858"
*CORR_POS_NODE_POS_MEAS01 "28.3712"
*CORR_POS_NODE_POS_MEAS02 "47.2304"
*CORR_POS_NODE_POS_MEAS03 "56.0465"
*CORR_POS_NODE_POS_MEAS04 "69.0523"
*CORR_POS_NODE_POS_MEAS05 "76.2993"
*CORR_POS_NODE_POS_MEAS06 "87.9512"
*CORR_POS_NODE_POS_MEAS07 "94.8772"
*CORR_POS_NODE_POS_MEAS08 "106.636"
*CORR_POS_NODE_POS_MEAS09 "114.028"
*CORR_POS_NODE_POS_MEAS10 "127.48"
*CORR_POS_NODE_POS_MEAS11 "136.839"
*CORR_POS_OPT_ATTR "集中法"
*CORR_POS_PARAM_MU ""
*CORR_POS_PARAM_PL ""
*CORR_POS_SEMODEL_TYPE "0"
*CORR_POS_STANDARD_TYPE ""
*CORR_POS_VALUE_ANALYZER "None"
*CORR_POS_VALUE_CMONO "None"
*CORR_POS_VALUE_IMONO "None"
*CORR_POS_VALUE_IS "0.625deg"
*CORR_POS_VALUE_ISL "10.0mm"
*CORR_POS_VALUE_ISOLLER "2.5deg"
*CORR_POS_VALUE_RS1 "13.0mm"
*CORR_POS_VALUE_RS2 "13.0mm"
*CORR_POS_VALUE_RSOLLER "2.5deg"
*CORR_POS_XG_FOCUS_L ""
*CORR_POS_XG_WAVE_TYPE ""
*CORR_POS_XG_WAVE_VALUE ""
*DISP_FMT_X "%.2f"
*DISP_FMT_Y "%.0f"
*DISP_FULLSCALE "4407.6000000000"
*DISP_LINE_COLOR "255.0000000000"
*DISP_LINE_STYLE "0.0000000000"
*DISP_LINE_WIDTH "0.2500000000"
*DISP_NOTE "Collected Data-1"
*DISP_OFFSET_Y "0.0000000000"
*DISP_PEAKSEARCH_UNIT_Y "COUNTS"
*DISP_RANGE_BOTTOM "0.0000000000"
*DISP_RANGE_LEFT "10.0000000000"
*DISP_RANGE_LOGCUTOFF "0.0100000000"
*DISP_RANGE_RIGHT "90.0000000000"
*DISP_RANGE_TOP "4407.6000000000"
*DISP_SCALE_MODE_Y "0.0000000000"
*DISP_TAB_NAME "Theta/2-Theta"
*DISP_TITLE_Y "Intensity"
*DISP_UNIT_Y "counts"
*DISP_WINDOW_NAME "MSG_MACROENGINE"
*FILE_COMMENT " "
*FILE_MD5 ""
*FILE_MEMO " "
*FILE_OPERATOR "MiniFlex"
*FILE_PART_ID "MEAS_PBEA_00223"
*FILE_SAMPLE "Grafittpapir_test"
*FILE_TYPE "RAS_RAW"
*FILE_USERGROUP "System User"
*FILE_VERSION "1.0000000000"
*HW_ATTACHMENT_ID "ATT1031"
*HW_ATTACHMENT_NAME "6サンプルチェンジャ|ASC-6"
*HW_COUNTER_ID-0 "CUT0025"
*HW_COUNTER_ID-1 "CUT0020"
*HW_COUNTER_ID-2 "CUT0020"
*HW_COUNTER_ID-3 "CMC0021"
*HW_COUNTER_NAME-0 "D/teX Ultra|D/teX Ultra"
*HW_COUNTER_NAME-1 "None|None"
*HW_COUNTER_NAME-2 "None|None"
*HW_COUNTER_NAME-3 "検出器モノクロメータ|Detector monochromator"
*HW_COUNTER_SELECT_NAME "D/teX Ultra|D/teX Ultra"
*HW_GONIOMETER_ID "GON0070"
*HW_GONIOMETER_NAME "MiniFlex 300/600|MiniFlex 300/600"
*HW_GONIOMETER_RADIUS-0 "79.0"
*HW_GONIOMETER_RADIUS-1 "91.5"
*HW_GONIOMETER_RADIUS-2 "150.0"
*HW_GONIOMETER_RADIUS-3 "0"
*HW_GONIOMETER_RADIUS-4 "103.4"
*HW_GONIOMETER_RADIUS-5 "150.0"
*HW_GONIOMETER_RADIUS-6 "46.6"
*HW_GONIOMETER_RADIUS-7 "160.0"
*HW_I_OPT_ID-0 "ISL0021"
*HW_I_OPT_ID-1 "ISO0021"
*HW_I_OPT_NAME-0 "発散スリット|Divergence slit"
*HW_I_OPT_NAME-1 "入射平行スリット|Incident parallel slit"
*HW_R_ATTENUATER_AUTOMODE "0"
*HW_R_OPT_ID-0 "RSS0021"
*HW_R_OPT_ID-1 "RSO0021"
*HW_R_OPT_ID-2 "RRS0021"
*HW_R_OPT_NAME-0 "散乱スリット|Scattering slit"
*HW_R_OPT_NAME-1 "受光平行スリット|Receiving soller slit"
*HW_R_OPT_NAME-2 "受光スリット|Receiving slit"
*HW_SAMPLE_HOLDER_ID "SMP0000"
*HW_SAMPLE_HOLDER_NAME "無し|None"
*HW_XG_CURRENT_MAX "15"
*HW_XG_CURRENT_MIN "2"
*HW_XG_CURRENT_RESOLUTION "1"
*HW_XG_CURRENT_UNIT "mA"
*HW_XG_FOCUS "1mm x 10mm"
*HW_XG_FOCUS_TYPE "Normal"
*HW_XG_ID "1060"
*HW_XG_NAME "300W/600W 封入管-B|300W/600W Sealed tube-B"
*HW_XG_TARGET_ATOMIC_NUMBER "29.0000000000"
*HW_XG_TARGET_NAME "Cu"
*HW_XG_TYPE "Hermetic"
*HW_XG_VOLTAGE_MAX "40"
*HW_XG_VOLTAGE_MIN "20"
*HW_XG_VOLTAGE_RESOLUTION "1"
*HW_XG_VOLTAGE_UNIT "kV"
*HW_XG_WATT_MAX "1"
*HW_XG_WATT_UNIT "kW"
*HW_XG_WAVE_LENGTH_ALPHA1 "1.540593"
*HW_XG_WAVE_LENGTH_ALPHA2 "1.544414"
*HW_XG_WAVE_LENGTH_BETA "1.392250"
*MEAS_COND_AXIS_NAME-0 "Theta/2-Theta"
*MEAS_COND_AXIS_NAME-1 "Spin"
*MEAS_COND_AXIS_NAME-2 "Change"
*MEAS_COND_AXIS_NAME-3 "Soller(inc.)"
*MEAS_COND_AXIS_NAME-4 "IHS"
*MEAS_COND_AXIS_NAME-5 "DS"
*MEAS_COND_AXIS_NAME-6 "SS"
*MEAS_COND_AXIS_NAME-7 "Soller(rec.)"
*MEAS_COND_AXIS_NAME-8 "RS"
*MEAS_COND_AXIS_NAME-9 "Filter"
*MEAS_COND_AXIS_NAME-10 "Monochromator"
*MEAS_COND_AXIS_NAME-11 "PHA"
*MEAS_COND_AXIS_NAME_INTERNAL-0 "TwoThetaTheta"
*MEAS_COND_AXIS_NAME_INTERNAL-1 "Spin"
*MEAS_COND_AXIS_NAME_INTERNAL-2 "Change"
*MEAS_COND_AXIS_NAME_INTERNAL-3 "IncidentSollerSlit"
*MEAS_COND_AXIS_NAME_INTERNAL-4 "IncidentAxdSlit"
*MEAS_COND_AXIS_NAME_INTERNAL-5 "IncidentSlitBox"
*MEAS_COND_AXIS_NAME_INTERNAL-6 "ReceivingSlitBox1"
*MEAS_COND_AXIS_NAME_INTERNAL-7 "ReceivingSollerSlit"
*MEAS_COND_AXIS_NAME_INTERNAL-8 "ReceivingSlitBox2"
*MEAS_COND_AXIS_NAME_INTERNAL-9 "Filter"
*MEAS_COND_AXIS_NAME_INTERNAL-10 "CounterMonochromator"
*MEAS_COND_AXIS_NAME_INTERNAL-11 "PHA"
*MEAS_COND_AXIS_NAME_MAGICNO-0 "268632064.0000000000"
*MEAS_COND_AXIS_NAME_MAGICNO-1 "16842752.0000000000"
*MEAS_COND_AXIS_NAME_MAGICNO-2 "16842752.0000000000"
*MEAS_COND_AXIS_NAME_MAGICNO-3 "20971521.0000000000"
*MEAS_COND_AXIS_NAME_MAGICNO-4 "22020097.0000000000"
*MEAS_COND_AXIS_NAME_MAGICNO-5 "22020097.0000000000"
*MEAS_COND_AXIS_NAME_MAGICNO-6 "23068673.0000000000"
*MEAS_COND_AXIS_NAME_MAGICNO-7 "20971521.0000000000"
*MEAS_COND_AXIS_NAME_MAGICNO-8 "23068673.0000000000"
*MEAS_COND_AXIS_NAME_MAGICNO-9 "20971521.0000000000"
*MEAS_COND_AXIS_NAME_MAGICNO-10 "20971521.0000000000"
*MEAS_COND_AXIS_NAME_MAGICNO-11 "0.0000000000"
*MEAS_COND_AXIS_OFFSET-0 "0.0000000000"
*MEAS_COND_AXIS_OFFSET-1 "-"
*MEAS_COND_AXIS_OFFSET-2 "-"
*MEAS_COND_AXIS_OFFSET-3 "-"
*MEAS_COND_AXIS_OFFSET-4 "-"
*MEAS_COND_AXIS_OFFSET-5 "-"
*MEAS_COND_AXIS_OFFSET-6 "-"
*MEAS_COND_AXIS_OFFSET-7 "-"
*MEAS_COND_AXIS_OFFSET-8 "-"
*MEAS_COND_AXIS_OFFSET-9 "-"
*MEAS_COND_AXIS_OFFSET-10 "-"
*MEAS_COND_AXIS_OFFSET-11 "-"
*MEAS_COND_AXIS_POSITION-0 "10.0000000000"
*MEAS_COND_AXIS_POSITION-1 "0.0000000000"
*MEAS_COND_AXIS_POSITION-2 "1.0000000000"
*MEAS_COND_AXIS_POSITION-3 "2.5deg"
*MEAS_COND_AXIS_POSITION-4 "10.0mm"
*MEAS_COND_AXIS_POSITION-5 "0.625deg"
*MEAS_COND_AXIS_POSITION-6 "13.0mm(Open)"
*MEAS_COND_AXIS_POSITION-7 "2.5deg"
*MEAS_COND_AXIS_POSITION-8 "13.0mm"
*MEAS_COND_AXIS_POSITION-9 "K-beta(x2)"
*MEAS_COND_AXIS_POSITION-10 "None"
*MEAS_COND_AXIS_POSITION-11 "41.0000000000"
*MEAS_COND_AXIS_UNIT-0 "deg"
*MEAS_COND_AXIS_UNIT-1 ""
*MEAS_COND_AXIS_UNIT-2 ""
*MEAS_COND_AXIS_UNIT-3 ""
*MEAS_COND_AXIS_UNIT-4 ""
*MEAS_COND_AXIS_UNIT-5 ""
*MEAS_COND_AXIS_UNIT-6 ""
*MEAS_COND_AXIS_UNIT-7 ""
*MEAS_COND_AXIS_UNIT-8 ""
*MEAS_COND_AXIS_UNIT-9 ""
*MEAS_COND_AXIS_UNIT-10 ""
*MEAS_COND_AXIS_UNIT-11 "div"
*MEAS_COND_CORRECTION_SLIT_COUNTERMONO "None"
*MEAS_COND_CORRECTION_SLIT_DS "0.625deg"
*MEAS_COND_CORRECTION_SLIT_FILTER "None"
*MEAS_COND_CORRECTION_SLIT_IHS "10.0mm"
*MEAS_COND_CORRECTION_SLIT_RS "13.0mm"
*MEAS_COND_CORRECTION_SLIT_SOLLER_INC "2.5deg"
*MEAS_COND_CORRECTION_SLIT_SOLLER_REC "2.5deg"
*MEAS_COND_CORRECTION_SLIT_SS "13.0mm"
*MEAS_COND_COUNTER_CNTLOSS_CORR "0.0000000000"
*MEAS_COND_COUNTER_PHABASE "41.0000000000"
*MEAS_COND_COUNTER_PHAWINDOW "14.0000000000"
*MEAS_COND_COUNTER_PHA_UNIT "div"
*MEAS_COND_COUNTER_TAUDIFF "0.2500000000"
*MEAS_COND_COUNTER_TAUINT "0.7500000000"
*MEAS_COND_IRRADIATION_MODE "OFF"
*MEAS_COND_IRRADIATION_WIDTH ""
*MEAS_COND_OPT_ATTR " "
*MEAS_COND_OPT_NAME ""
*MEAS_COND_UNSYMMETRIC_MODE "OFF"
*MEAS_COND_XG_CURRENT "15.0000000000"
*MEAS_COND_XG_VOLTAGE "40.0000000000"
*MEAS_COND_XG_WAVE_TYPE "Ka"
*MEAS_DATA_COUNT "4001.0000000000"
*MEAS_SCAN_AXIS_X "Theta/2-Theta"
*MEAS_SCAN_AXIS_X_INTERNAL "TwoThetaTheta"
*MEAS_SCAN_END_TIME "02/23/17 12:50:58"
*MEAS_SCAN_MODE "CONTINUOUS"
*MEAS_SCAN_MONITOR "0"
*MEAS_SCAN_RESOLUTION_X "0.005"
*MEAS_SCAN_SPEED "50.000"
*MEAS_SCAN_SPEED_UNIT "deg/min"
*MEAS_SCAN_SPEED_USER "50.000"
*MEAS_SCAN_START "10.0000000000"
*MEAS_SCAN_START_TIME "02/23/17 12:49:00"
*MEAS_SCAN_STEP "0.0200000000"
*MEAS_SCAN_STOP "90.0000000000"
*MEAS_SCAN_UNIT_X "deg"
*MEAS_SCAN_UNIT_Y "counts"
*SLIT_SYSTEM "0"
*RAS_HEADER_END
*RAS_INT_START
10.000 43.000 1.000
10.020 43.000 1.000
10.040 43.000 1.000
10.060 45.000 1.000
10.080 45.000 1.000
10.100 49.000 1.000
10.120 40.000 1.000
10.140 36.000 1.000
10.160 44.000 1.000
10.180 48.000 1.000
10.200 37.000 1.000
10.220 35.000 1.000
10.240 49.000 1.000
10.260 42.000 1.000
10.280 37.000 1.000
10.300 43.000 1.000
10.320 52.000 1.000
10.340 47.000 1.000
10.360 34.000 1.000
10.380 39.000 1.000
10.400 35.000 1.000
10.420 41.000 1.000
10.440 37.000 1.000
10.460 36.000 1.000
10.480 37.000 1.000
10.500 42.000 1.000
10.520 35.000 1.000
10.540 39.000 1.000
10.560 45.000 1.000
10.580 42.000 1.000
10.600 43.000 1.000
10.620 39.000 1.000
10.640 43.000 1.000
10.660 43.000 1.000
10.680 34.000 1.000
10.700 39.000 1.000
10.720 47.000 1.000
10.740 43.000 1.000
10.760 36.000 1.000
10.780 37.000 1.000
10.800 31.000 1.000
10.820 38.000 1.000
10.840 33.000 1.000
10.860 35.000 1.000
10.880 41.000 1.000
10.900 47.000 1.000
10.920 41.000 1.000
10.940 43.000 1.000
10.960 40.000 1.000
10.980 36.000 1.000
11.000 35.000 1.000
11.020 37.000 1.000
11.040 37.000 1.000
11.060 35.000 1.000
11.080 34.000 1.000
11.100 33.000 1.000
11.120 44.000 1.000
11.140 42.000 1.000
11.160 44.000 1.000
11.180 40.000 1.000
11.200 34.000 1.000
11.220 32.000 1.000
11.240 32.000 1.000
11.260 37.000 1.000
11.280 32.000 1.000
11.300 37.000 1.000
11.320 32.000 1.000
11.340 39.000 1.000
11.360 39.000 1.000
11.380 36.000 1.000
11.400 40.000 1.000
11.420 46.000 1.000
11.440 40.000 1.000
11.460 38.000 1.000
11.480 36.000 1.000
11.500 27.000 1.000
11.520 33.000 1.000
11.540 45.000 1.000
11.560 43.000 1.000
11.580 42.000 1.000
11.600 40.000 1.000
11.620 40.000 1.000
11.640 35.000 1.000
11.660 35.000 1.000
11.680 27.000 1.000
11.700 29.000 1.000
11.720 32.000 1.000
11.740 35.000 1.000
11.760 34.000 1.000
11.780 35.000 1.000
11.800 34.000 1.000
11.820 33.000 1.000
11.840 31.000 1.000
11.860 39.000 1.000
11.880 40.000 1.000
11.900 35.000 1.000
11.920 33.000 1.000
11.940 42.000 1.000
11.960 36.000 1.000
11.980 35.000 1.000
12.000 30.000 1.000
12.020 32.000 1.000
12.040 28.000 1.000
12.060 28.000 1.000
12.080 26.000 1.000
12.100 33.000 1.000
12.120 30.000 1.000
12.140 33.000 1.000
12.160 33.000 1.000
12.180 30.000 1.000
12.200 35.000 1.000
12.220 38.000 1.000
12.240 29.000 1.000
12.260 26.000 1.000
12.280 29.000 1.000
12.300 27.000 1.000
12.320 31.000 1.000
12.340 38.000 1.000
12.360 29.000 1.000
12.380 33.000 1.000
12.400 33.000 1.000
12.420 30.000 1.000
12.440 35.000 1.000
12.460 33.000 1.000
12.480 30.000 1.000
12.500 30.000 1.000
12.520 39.000 1.000
12.540 31.000 1.000
12.560 26.000 1.000
12.580 31.000 1.000
12.600 37.000 1.000
12.620 34.000 1.000
12.640 23.000 1.000
12.660 26.000 1.000
12.680 29.000 1.000
12.700 30.000 1.000
12.720 35.000 1.000
12.740 29.000 1.000
12.760 31.000 1.000
12.780 29.000 1.000
12.800 31.000 1.000
12.820 37.000 1.000
12.840 35.000 1.000
12.860 28.000 1.000
12.880 28.000 1.000
12.900 23.000 1.000
12.920 30.000 1.000
12.940 34.000 1.000
12.960 32.000 1.000
12.980 29.000 1.000
13.000 24.000 1.000
13.020 27.000 1.000
13.040 30.000 1.000
13.060 28.000 1.000
13.080 29.000 1.000
13.100 37.000 1.000
13.120 36.000 1.000
13.140 24.000 1.000
13.160 32.000 1.000
13.180 35.000 1.000
13.200 30.000 1.000
13.220 36.000 1.000
13.240 38.000 1.000
13.260 36.000 1.000
13.280 31.000 1.000
13.300 31.000 1.000
13.320 21.000 1.000
13.340 23.000 1.000
13.360 23.000 1.000
13.380 22.000 1.000
13.400 24.000 1.000
13.420 32.000 1.000
13.440 28.000 1.000
13.460 33.000 1.000
13.480 36.000 1.000
13.500 33.000 1.000
13.520 30.000 1.000
13.540 28.000 1.000
13.560 25.000 1.000
13.580 35.000 1.000
13.600 36.000 1.000
13.620 31.000 1.000
13.640 24.000 1.000
13.660 24.000 1.000
13.680 26.000 1.000
13.700 27.000 1.000
13.720 29.000 1.000
13.740 28.000 1.000
13.760 30.000 1.000
13.780 28.000 1.000
13.800 29.000 1.000
13.820 25.000 1.000
13.840 23.000 1.000
13.860 24.000 1.000
13.880 24.000 1.000
13.900 26.000 1.000
13.920 21.000 1.000
13.940 24.000 1.000
13.960 27.000 1.000
13.980 21.000 1.000
14.000 23.000 1.000
14.020 25.000 1.000
14.040 28.000 1.000
14.060 27.000 1.000
14.080 29.000 1.000
14.100 25.000 1.000
14.120 22.000 1.000
14.140 27.000 1.000
14.160 24.000 1.000
14.180 27.000 1.000
14.200 25.000 1.000
14.220 25.000 1.000
14.240 33.000 1.000
14.260 27.000 1.000
14.280 22.000 1.000
14.300 27.000 1.000
14.320 35.000 1.000
14.340 25.000 1.000
14.360 22.000 1.000
14.380 29.000 1.000
14.400 29.000 1.000
14.420 29.000 1.000
14.440 27.000 1.000
14.460 24.000 1.000
14.480 21.000 1.000
14.500 27.000 1.000
14.520 21.000 1.000
14.540 19.000 1.000
14.560 26.000 1.000
14.580 29.000 1.000
14.600 20.000 1.000
14.620 26.000 1.000
14.640 23.000 1.000
14.660 26.000 1.000
14.680 25.000 1.000
14.700 23.000 1.000
14.720 22.000 1.000
14.740 28.000 1.000
14.760 25.000 1.000
14.780 29.000 1.000
14.800 21.000 1.000
14.820 25.000 1.000
14.840 22.000 1.000
14.860 25.000 1.000
14.880 22.000 1.000
14.900 23.000 1.000
14.920 25.000 1.000
14.940 16.000 1.000
14.960 22.000 1.000
14.980 24.000 1.000
15.000 19.000 1.000
15.020 23.000 1.000
15.040 24.000 1.000
15.060 29.000 1.000
15.080 26.000 1.000
15.100 23.000 1.000
15.120 18.000 1.000
15.140 23.000 1.000
15.160 21.000 1.000
15.180 24.000 1.000
15.200 24.000 1.000
15.220 28.000 1.000
15.240 27.000 1.000
15.260 23.000 1.000
15.280 20.000 1.000
15.300 19.000 1.000
15.320 27.000 1.000
15.340 31.000 1.000
15.360 23.000 1.000
15.380 24.000 1.000
15.400 26.000 1.000
15.420 22.000 1.000
15.440 23.000 1.000
15.460 24.000 1.000
15.480 23.000 1.000
15.500 25.000 1.000
15.520 22.000 1.000
15.540 19.000 1.000
15.560 20.000 1.000
15.580 20.000 1.000
15.600 22.000 1.000
15.620 27.000 1.000
15.640 23.000 1.000
15.660 23.000 1.000
15.680 21.000 1.000
15.700 24.000 1.000
15.720 23.000 1.000
15.740 23.000 1.000
15.760 24.000 1.000
15.780 23.000 1.000
15.800 19.000 1.000
15.820 21.000 1.000
15.840 25.000 1.000
15.860 24.000 1.000
15.880 22.000 1.000
15.900 25.000 1.000
15.920 22.000 1.000
15.940 29.000 1.000
15.960 27.000 1.000
15.980 22.000 1.000
16.000 26.000 1.000
16.020 22.000 1.000
16.040 21.000 1.000
16.060 19.000 1.000
16.080 19.000 1.000
16.100 16.000 1.000
16.120 19.000 1.000
16.140 23.000 1.000
16.160 28.000 1.000
16.180 25.000 1.000
16.200 25.000 1.000
16.220 31.000 1.000
16.240 25.000 1.000
16.260 24.000 1.000
16.280 33.000 1.000
16.300 29.000 1.000
16.320 25.000 1.000
16.340 20.000 1.000
16.360 24.000 1.000
16.380 20.000 1.000
16.400 20.000 1.000
16.420 22.000 1.000
16.440 20.000 1.000
16.460 19.000 1.000
16.480 21.000 1.000
16.500 20.000 1.000
16.520 17.000 1.000
16.540 19.000 1.000
16.560 23.000 1.000
16.580 24.000 1.000
16.600 26.000 1.000
16.620 29.000 1.000
16.640 27.000 1.000
16.660 26.000 1.000
16.680 26.000 1.000
16.700 26.000 1.000
16.720 31.000 1.000
16.740 23.000 1.000
16.760 21.000 1.000
16.780 25.000 1.000
16.800 24.000 1.000
16.820 24.000 1.000
16.840 31.000 1.000
16.860 28.000 1.000
16.880 18.000 1.000
16.900 23.000 1.000
16.920 24.000 1.000
16.940 26.000 1.000
16.960 24.000 1.000
16.980 24.000 1.000
17.000 23.000 1.000
17.020 21.000 1.000
17.040 20.000 1.000
17.060 24.000 1.000
17.080 24.000 1.000
17.100 16.000 1.000
17.120 21.000 1.000
17.140 22.000 1.000
17.160 24.000 1.000
17.180 21.000 1.000
17.200 18.000 1.000
17.220 20.000 1.000
17.240 26.000 1.000
17.260 22.000 1.000
17.280 25.000 1.000
17.300 24.000 1.000
17.320 24.000 1.000
17.340 24.000 1.000
17.360 26.000 1.000
17.380 20.000 1.000
17.400 28.000 1.000
17.420 19.000 1.000
17.440 21.000 1.000
17.460 24.000 1.000
17.480 27.000 1.000
17.500 30.000 1.000
17.520 23.000 1.000
17.540 27.000 1.000
17.560 27.000 1.000
17.580 28.000 1.000
17.600 30.000 1.000
17.620 27.000 1.000
17.640 28.000 1.000
17.660 30.000 1.000
17.680 23.000 1.000
17.700 26.000 1.000
17.720 30.000 1.000
17.740 24.000 1.000
17.760 24.000 1.000
17.780 21.000 1.000
17.800 22.000 1.000
17.820 18.000 1.000
17.840 22.000 1.000
17.860 22.000 1.000
17.880 20.000 1.000
17.900 20.000 1.000
17.920 21.000 1.000
17.940 25.000 1.000
17.960 26.000 1.000
17.980 25.000 1.000
18.000 27.000 1.000
18.020 26.000 1.000
18.040 37.000 1.000
18.060 34.000 1.000
18.080 26.000 1.000
18.100 26.000 1.000
18.120 22.000 1.000
18.140 25.000 1.000
18.160 25.000 1.000
18.180 23.000 1.000
18.200 28.000 1.000
18.220 31.000 1.000
18.240 24.000 1.000
18.260 29.000 1.000
18.280 29.000 1.000
18.300 22.000 1.000
18.320 22.000 1.000
18.340 29.000 1.000
18.360 20.000 1.000
18.380 21.000 1.000
18.400 26.000 1.000
18.420 27.000 1.000
18.440 24.000 1.000
18.460 18.000 1.000
18.480 23.000 1.000
18.500 26.000 1.000
18.520 27.000 1.000
18.540 22.000 1.000
18.560 25.000 1.000
18.580 24.000 1.000
18.600 27.000 1.000
18.620 21.000 1.000
18.640 25.000 1.000
18.660 31.000 1.000
18.680 27.000 1.000
18.700 30.000 1.000
18.720 26.000 1.000
18.740 22.000 1.000
18.760 23.000 1.000
18.780 30.000 1.000
18.800 28.000 1.000
18.820 27.000 1.000
18.840 22.000 1.000
18.860 30.000 1.000
18.880 27.000 1.000
18.900 25.000 1.000
18.920 24.000 1.000
18.940 22.000 1.000
18.960 27.000 1.000
18.980 24.000 1.000
19.000 27.000 1.000
19.020 24.000 1.000
19.040 21.000 1.000
19.060 23.000 1.000
19.080 27.000 1.000
19.100 30.000 1.000
19.120 32.000 1.000
19.140 27.000 1.000
19.160 27.000 1.000
19.180 25.000 1.000
19.200 27.000 1.000
19.220 29.000 1.000
19.240 27.000 1.000
19.260 24.000 1.000
19.280 27.000 1.000
19.300 30.000 1.000
19.320 28.000 1.000
19.340 26.000 1.000
19.360 29.000 1.000
19.380 28.000 1.000
19.400 27.000 1.000
19.420 29.000 1.000
19.440 39.000 1.000
19.460 36.000 1.000
19.480 26.000 1.000
19.500 30.000 1.000
19.520 28.000 1.000
19.540 31.000 1.000
19.560 30.000 1.000
19.580 31.000 1.000
19.600 40.000 1.000
19.620 35.000 1.000
19.640 46.000 1.000
19.660 41.000 1.000
19.680 37.000 1.000
19.700 39.000 1.000
19.720 46.000 1.000
19.740 53.000 1.000
19.760 44.000 1.000
19.780 39.000 1.000
19.800 48.000 1.000
19.820 43.000 1.000
19.840 38.000 1.000
19.860 37.000 1.000
19.880 42.000 1.000
19.900 41.000 1.000
19.920 40.000 1.000
19.940 40.000 1.000
19.960 45.000 1.000
19.980 33.000 1.000
20.000 31.000 1.000
20.020 38.000 1.000
20.040 40.000 1.000
20.060 38.000 1.000
20.080 43.000 1.000
20.100 46.000 1.000
20.120 37.000 1.000
20.140 37.000 1.000
20.160 43.000 1.000
20.180 38.000 1.000
20.200 39.000 1.000
20.220 34.000 1.000
20.240 32.000 1.000
20.260 42.000 1.000
20.280 40.000 1.000
20.300 48.000 1.000
20.320 43.000 1.000
20.340 42.000 1.000
20.360 40.000 1.000
20.380 35.000 1.000
20.400 38.000 1.000
20.420 39.000 1.000
20.440 41.000 1.000
20.460 35.000 1.000
20.480 41.000 1.000
20.500 38.000 1.000
20.520 37.000 1.000
20.540 39.000 1.000
20.560 34.000 1.000
20.580 33.000 1.000
20.600 35.000 1.000
20.620 33.000 1.000
20.640 37.000 1.000
20.660 42.000 1.000
20.680 39.000 1.000
20.700 39.000 1.000
20.720 34.000 1.000
20.740 41.000 1.000
20.760 41.000 1.000
20.780 42.000 1.000
20.800 40.000 1.000
20.820 44.000 1.000
20.840 46.000 1.000
20.860 45.000 1.000
20.880 46.000 1.000
20.900 39.000 1.000
20.920 41.000 1.000
20.940 36.000 1.000
20.960 37.000 1.000
20.980 40.000 1.000
21.000 40.000 1.000
21.020 40.000 1.000
21.040 34.000 1.000
21.060 28.000 1.000
21.080 33.000 1.000
21.100 35.000 1.000
21.120 38.000 1.000
21.140 37.000 1.000
21.160 40.000 1.000
21.180 34.000 1.000
21.200 35.000 1.000
21.220 31.000 1.000
21.240 41.000 1.000
21.260 38.000 1.000
21.280 39.000 1.000
21.300 45.000 1.000
21.320 50.000 1.000
21.340 49.000 1.000
21.360 52.000 1.000
21.380 38.000 1.000
21.400 46.000 1.000
21.420 43.000 1.000
21.440 49.000 1.000
21.460 49.000 1.000
21.480 39.000 1.000
21.500 46.000 1.000
21.520 45.000 1.000
21.540 46.000 1.000
21.560 42.000 1.000
21.580 39.000 1.000
21.600 34.000 1.000
21.620 42.000 1.000
21.640 44.000 1.000
21.660 41.000 1.000
21.680 48.000 1.000
21.700 46.000 1.000
21.720 48.000 1.000
21.740 42.000 1.000
21.760 45.000 1.000
21.780 44.000 1.000
21.800 46.000 1.000
21.820 45.000 1.000
21.840 43.000 1.000
21.860 41.000 1.000
21.880 40.000 1.000
21.900 43.000 1.000
21.920 47.000 1.000
21.940 39.000 1.000
21.960 35.000 1.000
21.980 38.000 1.000
22.000 45.000 1.000
22.020 36.000 1.000
22.040 34.000 1.000
22.060 35.000 1.000
22.080 43.000 1.000
22.100 36.000 1.000
22.120 36.000 1.000
22.140 42.000 1.000
22.160 56.000 1.000
22.180 49.000 1.000
22.200 43.000 1.000
22.220 40.000 1.000
22.240 32.000 1.000
22.260 33.000 1.000
22.280 44.000 1.000
22.300 40.000 1.000
22.320 49.000 1.000
22.340 50.000 1.000
22.360 45.000 1.000
22.380 38.000 1.000
22.400 48.000 1.000
22.420 54.000 1.000
22.440 52.000 1.000
22.460 39.000 1.000
22.480 41.000 1.000
22.500 45.000 1.000
22.520 57.000 1.000
22.540 57.000 1.000
22.560 54.000 1.000
22.580 56.000 1.000
22.600 59.000 1.000
22.620 48.000 1.000
22.640 48.000 1.000
22.660 49.000 1.000
22.680 56.000 1.000
22.700 54.000 1.000
22.720 55.000 1.000
22.740 60.000 1.000
22.760 59.000 1.000
22.780 52.000 1.000
22.800 49.000 1.000
22.820 48.000 1.000
22.840 59.000 1.000
22.860 58.000 1.000
22.880 59.000 1.000
22.900 59.000 1.000
22.920 48.000 1.000
22.940 47.000 1.000
22.960 49.000 1.000
22.980 61.000 1.000
23.000 56.000 1.000
23.020 50.000 1.000
23.040 62.000 1.000
23.060 58.000 1.000
23.080 57.000 1.000
23.100 62.000 1.000
23.120 61.000 1.000
23.140 59.000 1.000
23.160 61.000 1.000
23.180 65.000 1.000
23.200 55.000 1.000
23.220 58.000 1.000
23.240 70.000 1.000
23.260 65.000 1.000
23.280 61.000 1.000
23.300 71.000 1.000
23.320 73.000 1.000
23.340 66.000 1.000
23.360 65.000 1.000
23.380 57.000 1.000
23.400 65.000 1.000
23.420 53.000 1.000
23.440 69.000 1.000
23.460 66.000 1.000
23.480 75.000 1.000
23.500 74.000 1.000
23.520 71.000 1.000
23.540 83.000 1.000
23.560 72.000 1.000
23.580 76.000 1.000
23.600 89.000 1.000
23.620 93.000 1.000
23.640 87.000 1.000
23.660 84.000 1.000
23.680 79.000 1.000
23.700 72.000 1.000
23.720 73.000 1.000
23.740 85.000 1.000
23.760 88.000 1.000
23.780 99.000 1.000
23.800 100.000 1.000
23.820 103.000 1.000
23.840 98.000 1.000
23.860 85.000 1.000
23.880 81.000 1.000
23.900 83.000 1.000
23.920 95.000 1.000
23.940 94.000 1.000
23.960 96.000 1.000
23.980 101.000 1.000
24.000 98.000 1.000
24.020 96.000 1.000
24.040 102.000 1.000
24.060 110.000 1.000
24.080 110.000 1.000
24.100 98.000 1.000
24.120 105.000 1.000
24.140 102.000 1.000
24.160 114.000 1.000
24.180 136.000 1.000
24.200 131.000 1.000
24.220 111.000 1.000
24.240 103.000 1.000
24.260 118.000 1.000
24.280 121.000 1.000
24.300 117.000 1.000
24.320 118.000 1.000
24.340 129.000 1.000
24.360 136.000 1.000
24.380 133.000 1.000
24.400 133.000 1.000
24.420 147.000 1.000
24.440 143.000 1.000
24.460 135.000 1.000
24.480 158.000 1.000
24.500 146.000 1.000
24.520 170.000 1.000
24.540 158.000 1.000
24.560 160.000 1.000
24.580 161.000 1.000
24.600 168.000 1.000
24.620 173.000 1.000
24.640 179.000 1.000
24.660 168.000 1.000
24.680 179.000 1.000
24.700 179.000 1.000
24.720 195.000 1.000
24.740 202.000 1.000
24.760 185.000 1.000
24.780 190.000 1.000
24.800 191.000 1.000
24.820 189.000 1.000
24.840 183.000 1.000
24.860 199.000 1.000
24.880 221.000 1.000
24.900 229.000 1.000
24.920 234.000 1.000
24.940 244.000 1.000
24.960 256.000 1.000
24.980 244.000 1.000
25.000 259.000 1.000
25.020 247.000 1.000
25.040 285.000 1.000
25.060 275.000 1.000
25.080 284.000 1.000
25.100 273.000 1.000
25.120 279.000 1.000
25.140 295.000 1.000
25.160 314.000 1.000
25.180 327.000 1.000
25.200 316.000 1.000
25.220 352.000 1.000
25.240 346.000 1.000
25.260 352.000 1.000
25.280 369.000 1.000
25.300 385.000 1.000
25.320 417.000 1.000
25.340 388.000 1.000
25.360 419.000 1.000
25.380 429.000 1.000
25.400 414.000 1.000
25.420 452.000 1.000
25.440 470.000 1.000
25.460 432.000 1.000
25.480 462.000 1.000
25.500 489.000 1.000
25.520 494.000 1.000
25.540 518.000 1.000
25.560 521.000 1.000
25.580 563.000 1.000
25.600 567.000 1.000
25.620 550.000 1.000
25.640 591.000 1.000
25.660 622.000 1.000
25.680 620.000 1.000
25.700 638.000 1.000
25.720 629.000 1.000
25.740 624.000 1.000
25.760 662.000 1.000
25.780 668.000 1.000
25.800 713.000 1.000
25.820 718.000 1.000
25.840 746.000 1.000
25.860 726.000 1.000
25.880 735.000 1.000
25.900 770.000 1.000
25.920 765.000 1.000
25.940 788.000 1.000
25.960 824.000 1.000
25.980 810.000 1.000
26.000 817.000 1.000
26.020 836.000 1.000
26.040 887.000 1.000
26.060 902.000 1.000
26.080 921.000 1.000
26.100 916.000 1.000
26.120 932.000 1.000
26.140 960.000 1.000
26.160 1036.000 1.000
26.180 1012.000 1.000
26.200 1055.000 1.000
26.220 1155.000 1.000
26.240 1222.000 1.000
26.260 1318.000 1.000
26.280 1428.000 1.000
26.300 1545.000 1.000
26.320 1778.000 1.000
26.340 2077.000 1.000
26.360 2310.000 1.000
26.380 2700.000 1.000
26.400 3025.000 1.000
26.420 3347.000 1.000
26.440 3531.000 1.000
26.460 3673.000 1.000
26.480 3638.000 1.000
26.500 3447.000 1.000
26.520 3129.000 1.000
26.540 2664.000 1.000
26.560 2239.000 1.000
26.580 1801.000 1.000
26.600 1427.000 1.000
26.620 1153.000 1.000
26.640 927.000 1.000
26.660 754.000 1.000
26.680 673.000 1.000
26.700 583.000 1.000
26.720 504.000 1.000
26.740 434.000 1.000
26.760 409.000 1.000
26.780 421.000 1.000
26.800 384.000 1.000
26.820 315.000 1.000
26.840 314.000 1.000
26.860 320.000 1.000
26.880 287.000 1.000
26.900 295.000 1.000
26.920 270.000 1.000
26.940 253.000 1.000
26.960 260.000 1.000
26.980 233.000 1.000
27.000 222.000 1.000
27.020 233.000 1.000
27.040 227.000 1.000
27.060 210.000 1.000
27.080 195.000 1.000
27.100 182.000 1.000
27.120 191.000 1.000
27.140 191.000 1.000
27.160 155.000 1.000
27.180 167.000 1.000
27.200 179.000 1.000
27.220 165.000 1.000
27.240 154.000 1.000
27.260 142.000 1.000
27.280 147.000 1.000
27.300 126.000 1.000
27.320 131.000 1.000
27.340 123.000 1.000
27.360 137.000 1.000
27.380 127.000 1.000
27.400 133.000 1.000
27.420 120.000 1.000
27.440 117.000 1.000
27.460 120.000 1.000
27.480 112.000 1.000
27.500 107.000 1.000
27.520 90.000 1.000
27.540 98.000 1.000
27.560 116.000 1.000
27.580 92.000 1.000
27.600 102.000 1.000
27.620 88.000 1.000
27.640 92.000 1.000
27.660 84.000 1.000
27.680 87.000 1.000
27.700 93.000 1.000
27.720 80.000 1.000
27.740 82.000 1.000
27.760 90.000 1.000
27.780 85.000 1.000
27.800 80.000 1.000
27.820 71.000 1.000
27.840 99.000 1.000
27.860 83.000 1.000
27.880 97.000 1.000
27.900 78.000 1.000
27.920 72.000 1.000
27.940 71.000 1.000
27.960 74.000 1.000
27.980 73.000 1.000
28.000 73.000 1.000
28.020 72.000 1.000
28.040 72.000 1.000
28.060 79.000 1.000
28.080 76.000 1.000
28.100 64.000 1.000
28.120 52.000 1.000
28.140 64.000 1.000
28.160 67.000 1.000
28.180 70.000 1.000
28.200 54.000 1.000
28.220 62.000 1.000
28.240 65.000 1.000
28.260 63.000 1.000
28.280 61.000 1.000
28.300 63.000 1.000
28.320 64.000 1.000
28.340 61.000 1.000
28.360 65.000 1.000
28.380 71.000 1.000
28.400 62.000 1.000
28.420 64.000 1.000
28.440 67.000 1.000
28.460 69.000 1.000
28.480 64.000 1.000
28.500 60.000 1.000
28.520 57.000 1.000
28.540 53.000 1.000
28.560 49.000 1.000
28.580 48.000 1.000
28.600 56.000 1.000
28.620 49.000 1.000
28.640 54.000 1.000
28.660 56.000 1.000
28.680 42.000 1.000
28.700 47.000 1.000
28.720 42.000 1.000
28.740 45.000 1.000
28.760 44.000 1.000
28.780 46.000 1.000
28.800 38.000 1.000
28.820 47.000 1.000
28.840 51.000 1.000
28.860 47.000 1.000
28.880 43.000 1.000
28.900 39.000 1.000
28.920 57.000 1.000
28.940 46.000 1.000
28.960 35.000 1.000
28.980 36.000 1.000
29.000 47.000 1.000
29.020 32.000 1.000
29.040 32.000 1.000
29.060 34.000 1.000
29.080 30.000 1.000
29.100 32.000 1.000
29.120 35.000 1.000
29.140 39.000 1.000
29.160 42.000 1.000
29.180 46.000 1.000
29.200 47.000 1.000
29.220 40.000 1.000
29.240 31.000 1.000
29.260 34.000 1.000
29.280 52.000 1.000
29.300 53.000 1.000
29.320 52.000 1.000
29.340 51.000 1.000
29.360 45.000 1.000
29.380 50.000 1.000
29.400 54.000 1.000
29.420 55.000 1.000
29.440 52.000 1.000
29.460 46.000 1.000
29.480 47.000 1.000
29.500 39.000 1.000
29.520 41.000 1.000
29.540 29.000 1.000
29.560 39.000 1.000
29.580 33.000 1.000
29.600 38.000 1.000
29.620 46.000 1.000
29.640 35.000 1.000
29.660 38.000 1.000
29.680 39.000 1.000
29.700 33.000 1.000
29.720 28.000 1.000
29.740 32.000 1.000
29.760 43.000 1.000
29.780 30.000 1.000
29.800 36.000 1.000
29.820 37.000 1.000
29.840 37.000 1.000
29.860 31.000 1.000
29.880 31.000 1.000
29.900 28.000 1.000
29.920 33.000 1.000
29.940 29.000 1.000
29.960 30.000 1.000
29.980 34.000 1.000
30.000 23.000 1.000
30.020 29.000 1.000
30.040 26.000 1.000
30.060 30.000 1.000
30.080 33.000 1.000
30.100 35.000 1.000
30.120 29.000 1.000
30.140 27.000 1.000
30.160 30.000 1.000
30.180 29.000 1.000
30.200 31.000 1.000
30.220 27.000 1.000
30.240 26.000 1.000
30.260 34.000 1.000
30.280 36.000 1.000
30.300 32.000 1.000
30.320 28.000 1.000
30.340 24.000 1.000
30.360 26.000 1.000
30.380 22.000 1.000
30.400 20.000 1.000
30.420 26.000 1.000
30.440 28.000 1.000
30.460 30.000 1.000
30.480 26.000 1.000
30.500 19.000 1.000
30.520 29.000 1.000
30.540 26.000 1.000
30.560 21.000 1.000
30.580 31.000 1.000
30.600 35.000 1.000
30.620 27.000 1.000
30.640 28.000 1.000
30.660 36.000 1.000
30.680 30.000 1.000
30.700 29.000 1.000
30.720 31.000 1.000
30.740 31.000 1.000
30.760 28.000 1.000
30.780 25.000 1.000
30.800 33.000 1.000
30.820 39.000 1.000
30.840 45.000 1.000
30.860 44.000 1.000
30.880 31.000 1.000
30.900 32.000 1.000
30.920 26.000 1.000
30.940 20.000 1.000
30.960 25.000 1.000
30.980 28.000 1.000
31.000 27.000 1.000
31.020 24.000 1.000
31.040 25.000 1.000
31.060 21.000 1.000
31.080 18.000 1.000
31.100 24.000 1.000
31.120 29.000 1.000
31.140 29.000 1.000
31.160 26.000 1.000
31.180 30.000 1.000
31.200 29.000 1.000
31.220 23.000 1.000
31.240 17.000 1.000
31.260 21.000 1.000
31.280 22.000 1.000
31.300 23.000 1.000
31.320 25.000 1.000
31.340 28.000 1.000
31.360 28.000 1.000
31.380 24.000 1.000
31.400 20.000 1.000
31.420 17.000 1.000
31.440 22.000 1.000
31.460 23.000 1.000
31.480 23.000 1.000
31.500 23.000 1.000
31.520 18.000 1.000
31.540 19.000 1.000
31.560 20.000 1.000
31.580 28.000 1.000
31.600 29.000 1.000
31.620 25.000 1.000
31.640 28.000 1.000
31.660 24.000 1.000
31.680 19.000 1.000
31.700 18.000 1.000
31.720 16.000 1.000
31.740 21.000 1.000
31.760 22.000 1.000
31.780 35.000 1.000
31.800 26.000 1.000
31.820 18.000 1.000
31.840 22.000 1.000
31.860 27.000 1.000
31.880 24.000 1.000
31.900 25.000 1.000
31.920 25.000 1.000
31.940 20.000 1.000
31.960 24.000 1.000
31.980 18.000 1.000
32.000 18.000 1.000
32.020 19.000 1.000
32.040 14.000 1.000
32.060 13.000 1.000
32.080 18.000 1.000
32.100 17.000 1.000
32.120 19.000 1.000
32.140 25.000 1.000
32.160 25.000 1.000
32.180 18.000 1.000
32.200 18.000 1.000
32.220 25.000 1.000
32.240 17.000 1.000
32.260 16.000 1.000
32.280 22.000 1.000
32.300 17.000 1.000
32.320 20.000 1.000
32.340 23.000 1.000
32.360 17.000 1.000
32.380 21.000 1.000
32.400 20.000 1.000
32.420 19.000 1.000
32.440 15.000 1.000
32.460 23.000 1.000
32.480 18.000 1.000
32.500 12.000 1.000
32.520 15.000 1.000
32.540 21.000 1.000
32.560 23.000 1.000
32.580 17.000 1.000
32.600 18.000 1.000
32.620 12.000 1.000
32.640 9.000 1.000
32.660 18.000 1.000
32.680 16.000 1.000
32.700 14.000 1.000
32.720 15.000 1.000
32.740 17.000 1.000
32.760 16.000 1.000
32.780 21.000 1.000
32.800 22.000 1.000
32.820 25.000 1.000
32.840 15.000 1.000
32.860 17.000 1.000
32.880 18.000 1.000
32.900 15.000 1.000
32.920 19.000 1.000
32.940 23.000 1.000
32.960 21.000 1.000
32.980 15.000 1.000
33.000 19.000 1.000
33.020 19.000 1.000
33.040 28.000 1.000
33.060 16.000 1.000
33.080 14.000 1.000
33.100 20.000 1.000
33.120 15.000 1.000
33.140 19.000 1.000
33.160 18.000 1.000
33.180 13.000 1.000
33.200 15.000 1.000
33.220 14.000 1.000
33.240 15.000 1.000
33.260 10.000 1.000
33.280 18.000 1.000
33.300 11.000 1.000
33.320 18.000 1.000
33.340 15.000 1.000
33.360 16.000 1.000
33.380 15.000 1.000
33.400 21.000 1.000
33.420 19.000 1.000
33.440 24.000 1.000
33.460 25.000 1.000
33.480 18.000 1.000
33.500 14.000 1.000
33.520 18.000 1.000
33.540 22.000 1.000
33.560 12.000 1.000
33.580 18.000 1.000
33.600 22.000 1.000
33.620 15.000 1.000
33.640 13.000 1.000
33.660 18.000 1.000
33.680 19.000 1.000
33.700 12.000 1.000
33.720 18.000 1.000
33.740 18.000 1.000
33.760 16.000 1.000
33.780 14.000 1.000
33.800 14.000 1.000
33.820 15.000 1.000
33.840 16.000 1.000
33.860 21.000 1.000
33.880 15.000 1.000
33.900 11.000 1.000
33.920 12.000 1.000
33.940 14.000 1.000
33.960 19.000 1.000
33.980 12.000 1.000
34.000 16.000 1.000
34.020 22.000 1.000
34.040 13.000 1.000
34.060 14.000 1.000
34.080 19.000 1.000
34.100 14.000 1.000
34.120 18.000 1.000
34.140 16.000 1.000
34.160 16.000 1.000
34.180 16.000 1.000
34.200 18.000 1.000
34.220 19.000 1.000
34.240 16.000 1.000
34.260 16.000 1.000
34.280 16.000 1.000
34.300 14.000 1.000
34.320 14.000 1.000
34.340 15.000 1.000
34.360 18.000 1.000
34.380 20.000 1.000
34.400 26.000 1.000
34.420 20.000 1.000
34.440 13.000 1.000
34.460 23.000 1.000
34.480 21.000 1.000
34.500 13.000 1.000
34.520 19.000 1.000
34.540 17.000 1.000
34.560 17.000 1.000
34.580 23.000 1.000
34.600 23.000 1.000
34.620 27.000 1.000
34.640 17.000 1.000
34.660 23.000 1.000
34.680 29.000 1.000
34.700 15.000 1.000
34.720 17.000 1.000
34.740 29.000 1.000
34.760 24.000 1.000
34.780 25.000 1.000
34.800 22.000 1.000
34.820 22.000 1.000
34.840 29.000 1.000
34.860 31.000 1.000
34.880 25.000 1.000
34.900 28.000 1.000
34.920 27.000 1.000
34.940 25.000 1.000
34.960 26.000 1.000
34.980 27.000 1.000
35.000 28.000 1.000
35.020 29.000 1.000
35.040 24.000 1.000
35.060 28.000 1.000
35.080 30.000 1.000
35.100 21.000 1.000
35.120 18.000 1.000
35.140 23.000 1.000
35.160 26.000 1.000
35.180 23.000 1.000
35.200 23.000 1.000
35.220 32.000 1.000
35.240 25.000 1.000
35.260 18.000 1.000
35.280 25.000 1.000
35.300 31.000 1.000
35.320 21.000 1.000
35.340 26.000 1.000
35.360 19.000 1.000
35.380 25.000 1.000
35.400 26.000 1.000
35.420 20.000 1.000
35.440 20.000 1.000
35.460 27.000 1.000
35.480 21.000 1.000
35.500 16.000 1.000
35.520 23.000 1.000
35.540 23.000 1.000
35.560 22.000 1.000
35.580 31.000 1.000
35.600 29.000 1.000
35.620 26.000 1.000
35.640 29.000 1.000
35.660 29.000 1.000
35.680 20.000 1.000
35.700 21.000 1.000
35.720 19.000 1.000
35.740 24.000 1.000
35.760 24.000 1.000
35.780 19.000 1.000
35.800 22.000 1.000
35.820 15.000 1.000
35.840 23.000 1.000
35.860 24.000 1.000
35.880 31.000 1.000
35.900 21.000 1.000
35.920 23.000 1.000
35.940 33.000 1.000
35.960 28.000 1.000
35.980 23.000 1.000
36.000 18.000 1.000
36.020 18.000 1.000
36.040 22.000 1.000
36.060 25.000 1.000
36.080 23.000 1.000
36.100 22.000 1.000
36.120 21.000 1.000
36.140 18.000 1.000
36.160 20.000 1.000
36.180 22.000 1.000
36.200 15.000 1.000
36.220 20.000 1.000
36.240 13.000 1.000
36.260 17.000 1.000
36.280 17.000 1.000
36.300 24.000 1.000
36.320 21.000 1.000
36.340 17.000 1.000
36.360 22.000 1.000
36.380 28.000 1.000
36.400 21.000 1.000
36.420 23.000 1.000
36.440 22.000 1.000
36.460 22.000 1.000
36.480 19.000 1.000
36.500 20.000 1.000
36.520 17.000 1.000
36.540 20.000 1.000
36.560 22.000 1.000
36.580 16.000 1.000
36.600 13.000 1.000
36.620 13.000 1.000
36.640 25.000 1.000
36.660 25.000 1.000
36.680 19.000 1.000
36.700 27.000 1.000
36.720 19.000 1.000
36.740 23.000 1.000
36.760 23.000 1.000
36.780 16.000 1.000
36.800 22.000 1.000
36.820 15.000 1.000
36.840 24.000 1.000
36.860 14.000 1.000
36.880 13.000 1.000
36.900 19.000 1.000
36.920 17.000 1.000
36.940 18.000 1.000
36.960 13.000 1.000
36.980 16.000 1.000
37.000 23.000 1.000
37.020 20.000 1.000
37.040 17.000 1.000
37.060 19.000 1.000
37.080 16.000 1.000
37.100 23.000 1.000
37.120 21.000 1.000
37.140 18.000 1.000
37.160 17.000 1.000
37.180 27.000 1.000
37.200 24.000 1.000
37.220 25.000 1.000
37.240 22.000 1.000
37.260 18.000 1.000
37.280 18.000 1.000
37.300 20.000 1.000
37.320 31.000 1.000
37.340 21.000 1.000
37.360 12.000 1.000
37.380 14.000 1.000
37.400 19.000 1.000
37.420 12.000 1.000
37.440 10.000 1.000
37.460 13.000 1.000
37.480 19.000 1.000
37.500 22.000 1.000
37.520 18.000 1.000
37.540 19.000 1.000
37.560 10.000 1.000
37.580 17.000 1.000
37.600 12.000 1.000
37.620 25.000 1.000
37.640 19.000 1.000
37.660 21.000 1.000
37.680 15.000 1.000
37.700 18.000 1.000
37.720 23.000 1.000
37.740 20.000 1.000
37.760 19.000 1.000
37.780 14.000 1.000
37.800 16.000 1.000
37.820 18.000 1.000
37.840 25.000 1.000
37.860 19.000 1.000
37.880 13.000 1.000
37.900 16.000 1.000
37.920 14.000 1.000
37.940 16.000 1.000
37.960 20.000 1.000
37.980 12.000 1.000
38.000 22.000 1.000
38.020 16.000 1.000
38.040 16.000 1.000
38.060 16.000 1.000
38.080 19.000 1.000
38.100 10.000 1.000
38.120 14.000 1.000
38.140 21.000 1.000
38.160 12.000 1.000
38.180 17.000 1.000
38.200 19.000 1.000
38.220 14.000 1.000
38.240 13.000 1.000
38.260 16.000 1.000
38.280 19.000 1.000
38.300 13.000 1.000
38.320 13.000 1.000
38.340 9.000 1.000
38.360 21.000 1.000
38.380 19.000 1.000
38.400 21.000 1.000
38.420 22.000 1.000
38.440 16.000 1.000
38.460 16.000 1.000
38.480 15.000 1.000
38.500 16.000 1.000
38.520 12.000 1.000
38.540 10.000 1.000
38.560 14.000 1.000
38.580 17.000 1.000
38.600 17.000 1.000
38.620 19.000 1.000
38.640 14.000 1.000
38.660 18.000 1.000
38.680 23.000 1.000
38.700 21.000 1.000
38.720 17.000 1.000
38.740 18.000 1.000
38.760 15.000 1.000
38.780 11.000 1.000
38.800 17.000 1.000
38.820 24.000 1.000
38.840 17.000 1.000
38.860 14.000 1.000
38.880 18.000 1.000
38.900 17.000 1.000
38.920 12.000 1.000
38.940 19.000 1.000
38.960 22.000 1.000
38.980 14.000 1.000
39.000 14.000 1.000
39.020 18.000 1.000
39.040 16.000 1.000
39.060 18.000 1.000
39.080 15.000 1.000
39.100 20.000 1.000
39.120 19.000 1.000
39.140 14.000 1.000
39.160 19.000 1.000
39.180 19.000 1.000
39.200 19.000 1.000
39.220 15.000 1.000
39.240 12.000 1.000
39.260 18.000 1.000
39.280 17.000 1.000
39.300 16.000 1.000
39.320 22.000 1.000
39.340 24.000 1.000
39.360 20.000 1.000
39.380 16.000 1.000
39.400 15.000 1.000
39.420 19.000 1.000
39.440 17.000 1.000
39.460 15.000 1.000
39.480 15.000 1.000
39.500 12.000 1.000
39.520 11.000 1.000
39.540 14.000 1.000
39.560 13.000 1.000
39.580 15.000 1.000
39.600 22.000 1.000
39.620 18.000 1.000
39.640 11.000 1.000
39.660 22.000 1.000
39.680 13.000 1.000
39.700 21.000 1.000
39.720 23.000 1.000
39.740 19.000 1.000
39.760 15.000 1.000
39.780 12.000 1.000
39.800 11.000 1.000
39.820 16.000 1.000
39.840 13.000 1.000
39.860 20.000 1.000
39.880 12.000 1.000
39.900 13.000 1.000
39.920 14.000 1.000
39.940 21.000 1.000
39.960 14.000 1.000
39.980 16.000 1.000
40.000 15.000 1.000
40.020 17.000 1.000
40.040 13.000 1.000
40.060 19.000 1.000
40.080 16.000 1.000
40.100 17.000 1.000
40.120 14.000 1.000
40.140 20.000 1.000
40.160 17.000 1.000
40.180 12.000 1.000
40.200 13.000 1.000
40.220 13.000 1.000
40.240 14.000 1.000
40.260 11.000 1.000
40.280 19.000 1.000
40.300 17.000 1.000
40.320 17.000 1.000
40.340 17.000 1.000
40.360 10.000 1.000
40.380 12.000 1.000
40.400 22.000 1.000
40.420 22.000 1.000
40.440 8.000 1.000
40.460 14.000 1.000
40.480 20.000 1.000
40.500 17.000 1.000
40.520 19.000 1.000
40.540 21.000 1.000
40.560 19.000 1.000
40.580 17.000 1.000
40.600 28.000 1.000
40.620 16.000 1.000
40.640 20.000 1.000
40.660 26.000 1.000
40.680 9.000 1.000
40.700 17.000 1.000
40.720 16.000 1.000
40.740 21.000 1.000
40.760 15.000 1.000
40.780 17.000 1.000
40.800 14.000 1.000
40.820 21.000 1.000
40.840 16.000 1.000
40.860 22.000 1.000
40.880 27.000 1.000
40.900 25.000 1.000
40.920 21.000 1.000
40.940 21.000 1.000
40.960 17.000 1.000
40.980 21.000 1.000
41.000 15.000 1.000
41.020 13.000 1.000
41.040 18.000 1.000
41.060 11.000 1.000
41.080 15.000 1.000
41.100 21.000 1.000
41.120 17.000 1.000
41.140 23.000 1.000
41.160 15.000 1.000
41.180 20.000 1.000
41.200 17.000 1.000
41.220 22.000 1.000
41.240 13.000 1.000
41.260 21.000 1.000
41.280 21.000 1.000
41.300 9.000 1.000
41.320 13.000 1.000
41.340 19.000 1.000
41.360 18.000 1.000
41.380 15.000 1.000
41.400 13.000 1.000
41.420 17.000 1.000
41.440 14.000 1.000
41.460 16.000 1.000
41.480 17.000 1.000
41.500 23.000 1.000
41.520 27.000 1.000
41.540 23.000 1.000
41.560 20.000 1.000
41.580 17.000 1.000
41.600 18.000 1.000
41.620 16.000 1.000
41.640 19.000 1.000
41.660 19.000 1.000
41.680 24.000 1.000
41.700 20.000 1.000
41.720 15.000 1.000
41.740 15.000 1.000
41.760 25.000 1.000
41.780 29.000 1.000
41.800 19.000 1.000
41.820 20.000 1.000
41.840 19.000 1.000
41.860 11.000 1.000
41.880 16.000 1.000
41.900 15.000 1.000
41.920 27.000 1.000
41.940 23.000 1.000
41.960 12.000 1.000
41.980 15.000 1.000
42.000 19.000 1.000
42.020 24.000 1.000
42.040 26.000 1.000
42.060 17.000 1.000
42.080 20.000 1.000
42.100 17.000 1.000
42.120 18.000 1.000
42.140 18.000 1.000
42.160 19.000 1.000
42.180 29.000 1.000
42.200 25.000 1.000
42.220 18.000 1.000
42.240 37.000 1.000
42.260 34.000 1.000
42.280 22.000 1.000
42.300 19.000 1.000
42.320 23.000 1.000
42.340 20.000 1.000
42.360 28.000 1.000
42.380 21.000 1.000
42.400 16.000 1.000
42.420 20.000 1.000
42.440 20.000 1.000
42.460 17.000 1.000
42.480 24.000 1.000
42.500 21.000 1.000
42.520 26.000 1.000
42.540 25.000 1.000
42.560 24.000 1.000
42.580 16.000 1.000
42.600 18.000 1.000
42.620 18.000 1.000
42.640 22.000 1.000
42.660 26.000 1.000
42.680 20.000 1.000
42.700 24.000 1.000
42.720 24.000 1.000
42.740 27.000 1.000
42.760 33.000 1.000
42.780 25.000 1.000
42.800 23.000 1.000
42.820 38.000 1.000
42.840 45.000 1.000
42.860 47.000 1.000
42.880 41.000 1.000
42.900 39.000 1.000
42.920 44.000 1.000
42.940 45.000 1.000
42.960 46.000 1.000
42.980 64.000 1.000
43.000 45.000 1.000
43.020 51.000 1.000
43.040 48.000 1.000
43.060 53.000 1.000
43.080 46.000 1.000
43.100 43.000 1.000
43.120 38.000 1.000
43.140 33.000 1.000
43.160 31.000 1.000
43.180 30.000 1.000
43.200 33.000 1.000
43.220 25.000 1.000
43.240 31.000 1.000
43.260 22.000 1.000
43.280 17.000 1.000
43.300 27.000 1.000
43.320 27.000 1.000
43.340 38.000 1.000
43.360 22.000 1.000
43.380 22.000 1.000
43.400 18.000 1.000
43.420 25.000 1.000
43.440 23.000 1.000
43.460 21.000 1.000
43.480 14.000 1.000
43.500 31.000 1.000
43.520 32.000 1.000
43.540 21.000 1.000
43.560 25.000 1.000
43.580 22.000 1.000
43.600 22.000 1.000
43.620 29.000 1.000
43.640 17.000 1.000
43.660 18.000 1.000
43.680 20.000 1.000
43.700 16.000 1.000
43.720 28.000 1.000
43.740 28.000 1.000
43.760 20.000 1.000
43.780 26.000 1.000
43.800 30.000 1.000
43.820 18.000 1.000
43.840 19.000 1.000
43.860 23.000 1.000
43.880 19.000 1.000
43.900 17.000 1.000
43.920 22.000 1.000
43.940 22.000 1.000
43.960 22.000 1.000
43.980 25.000 1.000
44.000 21.000 1.000
44.020 27.000 1.000
44.040 20.000 1.000
44.060 24.000 1.000
44.080 22.000 1.000
44.100 24.000 1.000
44.120 27.000 1.000
44.140 23.000 1.000
44.160 18.000 1.000
44.180 23.000 1.000
44.200 22.000 1.000
44.220 22.000 1.000
44.240 22.000 1.000
44.260 19.000 1.000
44.280 20.000 1.000
44.300 23.000 1.000
44.320 22.000 1.000
44.340 23.000 1.000
44.360 28.000 1.000
44.380 21.000 1.000
44.400 21.000 1.000
44.420 21.000 1.000
44.440 21.000 1.000
44.460 27.000 1.000
44.480 27.000 1.000
44.500 23.000 1.000
44.520 23.000 1.000
44.540 11.000 1.000
44.560 23.000 1.000
44.580 28.000 1.000
44.600 19.000 1.000
44.620 28.000 1.000
44.640 20.000 1.000
44.660 23.000 1.000
44.680 24.000 1.000
44.700 23.000 1.000
44.720 24.000 1.000
44.740 19.000 1.000
44.760 26.000 1.000
44.780 19.000 1.000
44.800 26.000 1.000
44.820 25.000 1.000
44.840 23.000 1.000
44.860 15.000 1.000
44.880 18.000 1.000
44.900 12.000 1.000
44.920 23.000 1.000
44.940 19.000 1.000
44.960 29.000 1.000
44.980 20.000 1.000
45.000 15.000 1.000
45.020 26.000 1.000
45.040 25.000 1.000
45.060 23.000 1.000
45.080 18.000 1.000
45.100 20.000 1.000
45.120 17.000 1.000
45.140 20.000 1.000
45.160 19.000 1.000
45.180 19.000 1.000
45.200 15.000 1.000
45.220 14.000 1.000
45.240 24.000 1.000
45.260 19.000 1.000
45.280 13.000 1.000
45.300 16.000 1.000
45.320 19.000 1.000
45.340 19.000 1.000
45.360 12.000 1.000
45.380 12.000 1.000
45.400 18.000 1.000
45.420 21.000 1.000
45.440 23.000 1.000
45.460 27.000 1.000
45.480 18.000 1.000
45.500 18.000 1.000
45.520 17.000 1.000
45.540 20.000 1.000
45.560 23.000 1.000
45.580 19.000 1.000
45.600 21.000 1.000
45.620 18.000 1.000
45.640 16.000 1.000
45.660 16.000 1.000
45.680 20.000 1.000
45.700 20.000 1.000
45.720 21.000 1.000
45.740 17.000 1.000
45.760 19.000 1.000
45.780 12.000 1.000
45.800 17.000 1.000
45.820 18.000 1.000
45.840 15.000 1.000
45.860 22.000 1.000
45.880 18.000 1.000
45.900 12.000 1.000
45.920 12.000 1.000
45.940 18.000 1.000
45.960 17.000 1.000
45.980 15.000 1.000
46.000 14.000 1.000
46.020 24.000 1.000
46.040 19.000 1.000
46.060 16.000 1.000
46.080 15.000 1.000
46.100 9.000 1.000
46.120 21.000 1.000
46.140 24.000 1.000
46.160 15.000 1.000
46.180 17.000 1.000
46.200 13.000 1.000
46.220 16.000 1.000
46.240 16.000 1.000
46.260 24.000 1.000
46.280 13.000 1.000
46.300 21.000 1.000
46.320 24.000 1.000
46.340 21.000 1.000
46.360 20.000 1.000
46.380 23.000 1.000
46.400 13.000 1.000
46.420 16.000 1.000
46.440 18.000 1.000
46.460 13.000 1.000
46.480 19.000 1.000
46.500 12.000 1.000
46.520 16.000 1.000
46.540 23.000 1.000
46.560 15.000 1.000
46.580 18.000 1.000
46.600 17.000 1.000
46.620 17.000 1.000
46.640 20.000 1.000
46.660 25.000 1.000
46.680 18.000 1.000
46.700 20.000 1.000
46.720 14.000 1.000
46.740 19.000 1.000
46.760 23.000 1.000
46.780 18.000 1.000
46.800 16.000 1.000
46.820 12.000 1.000
46.840 16.000 1.000
46.860 18.000 1.000
46.880 27.000 1.000
46.900 25.000 1.000
46.920 14.000 1.000
46.940 13.000 1.000
46.960 21.000 1.000
46.980 15.000 1.000
47.000 21.000 1.000
47.020 19.000 1.000
47.040 23.000 1.000
47.060 23.000 1.000
47.080 16.000 1.000
47.100 14.000 1.000
47.120 14.000 1.000
47.140 19.000 1.000
47.160 18.000 1.000
47.180 16.000 1.000
47.200 19.000 1.000
47.220 14.000 1.000
47.240 19.000 1.000
47.260 15.000 1.000
47.280 13.000 1.000
47.300 13.000 1.000
47.320 21.000 1.000
47.340 14.000 1.000
47.360 20.000 1.000
47.380 20.000 1.000
47.400 20.000 1.000
47.420 24.000 1.000
47.440 12.000 1.000
47.460 17.000 1.000
47.480 15.000 1.000
47.500 22.000 1.000
47.520 26.000 1.000
47.540 22.000 1.000
47.560 17.000 1.000
47.580 14.000 1.000
47.600 14.000 1.000
47.620 17.000 1.000
47.640 17.000 1.000
47.660 20.000 1.000
47.680 11.000 1.000
47.700 16.000 1.000
47.720 17.000 1.000
47.740 24.000 1.000
47.760 14.000 1.000
47.780 18.000 1.000
47.800 17.000 1.000
47.820 19.000 1.000
47.840 16.000 1.000
47.860 19.000 1.000
47.880 19.000 1.000
47.900 17.000 1.000
47.920 16.000 1.000
47.940 21.000 1.000
47.960 23.000 1.000
47.980 9.000 1.000
48.000 19.000 1.000
48.020 17.000 1.000
48.040 19.000 1.000
48.060 17.000 1.000
48.080 17.000 1.000
48.100 15.000 1.000
48.120 19.000 1.000
48.140 16.000 1.000
48.160 12.000 1.000
48.180 21.000 1.000
48.200 10.000 1.000
48.220 8.000 1.000
48.240 13.000 1.000
48.260 24.000 1.000
48.280 15.000 1.000
48.300 19.000 1.000
48.320 12.000 1.000
48.340 13.000 1.000
48.360 13.000 1.000
48.380 13.000 1.000
48.400 17.000 1.000
48.420 18.000 1.000
48.440 23.000 1.000
48.460 21.000 1.000
48.480 19.000 1.000
48.500 17.000 1.000
48.520 29.000 1.000
48.540 13.000 1.000
48.560 24.000 1.000
48.580 22.000 1.000
48.600 25.000 1.000
48.620 17.000 1.000
48.640 16.000 1.000
48.660 15.000 1.000
48.680 14.000 1.000
48.700 18.000 1.000
48.720 21.000 1.000
48.740 17.000 1.000
48.760 22.000 1.000
48.780 20.000 1.000
48.800 16.000 1.000
48.820 16.000 1.000
48.840 12.000 1.000
48.860 15.000 1.000
48.880 16.000 1.000
48.900 17.000 1.000
48.920 23.000 1.000
48.940 16.000 1.000
48.960 15.000 1.000
48.980 19.000 1.000
49.000 17.000 1.000
49.020 9.000 1.000
49.040 24.000 1.000
49.060 13.000 1.000
49.080 16.000 1.000
49.100 15.000 1.000
49.120 11.000 1.000
49.140 22.000 1.000
49.160 17.000 1.000
49.180 16.000 1.000
49.200 16.000 1.000
49.220 12.000 1.000
49.240 15.000 1.000
49.260 18.000 1.000
49.280 14.000 1.000
49.300 17.000 1.000
49.320 17.000 1.000
49.340 11.000 1.000
49.360 12.000 1.000
49.380 22.000 1.000
49.400 23.000 1.000
49.420 18.000 1.000
49.440 20.000 1.000
49.460 16.000 1.000
49.480 19.000 1.000
49.500 18.000 1.000
49.520 16.000 1.000
49.540 20.000 1.000
49.560 15.000 1.000
49.580 23.000 1.000
49.600 19.000 1.000
49.620 19.000 1.000
49.640 17.000 1.000
49.660 16.000 1.000
49.680 18.000 1.000
49.700 17.000 1.000
49.720 12.000 1.000
49.740 16.000 1.000
49.760 16.000 1.000
49.780 17.000 1.000
49.800 18.000 1.000
49.820 21.000 1.000
49.840 19.000 1.000
49.860 17.000 1.000
49.880 22.000 1.000
49.900 20.000 1.000
49.920 21.000 1.000
49.940 17.000 1.000
49.960 21.000 1.000
49.980 18.000 1.000
50.000 10.000 1.000
50.020 19.000 1.000
50.040 20.000 1.000
50.060 13.000 1.000
50.080 17.000 1.000
50.100 26.000 1.000
50.120 19.000 1.000
50.140 18.000 1.000
50.160 25.000 1.000
50.180 20.000 1.000
50.200 15.000 1.000
50.220 16.000 1.000
50.240 13.000 1.000
50.260 14.000 1.000
50.280 23.000 1.000
50.300 20.000 1.000
50.320 23.000 1.000
50.340 20.000 1.000
50.360 21.000 1.000
50.380 25.000 1.000
50.400 25.000 1.000
50.420 27.000 1.000
50.440 19.000 1.000
50.460 17.000 1.000
50.480 21.000 1.000
50.500 26.000 1.000
50.520 19.000 1.000
50.540 15.000 1.000
50.560 19.000 1.000
50.580 19.000 1.000
50.600 25.000 1.000
50.620 23.000 1.000
50.640 11.000 1.000
50.660 22.000 1.000
50.680 12.000 1.000
50.700 24.000 1.000
50.720 30.000 1.000
50.740 18.000 1.000
50.760 25.000 1.000
50.780 19.000 1.000
50.800 22.000 1.000
50.820 24.000 1.000
50.840 24.000 1.000
50.860 17.000 1.000
50.880 28.000 1.000
50.900 22.000 1.000
50.920 18.000 1.000
50.940 23.000 1.000
50.960 25.000 1.000
50.980 28.000 1.000
51.000 21.000 1.000
51.020 17.000 1.000
51.040 17.000 1.000
51.060 22.000 1.000
51.080 23.000 1.000
51.100 13.000 1.000
51.120 16.000 1.000
51.140 30.000 1.000
51.160 17.000 1.000
51.180 20.000 1.000
51.200 10.000 1.000
51.220 13.000 1.000
51.240 22.000 1.000
51.260 22.000 1.000
51.280 19.000 1.000
51.300 20.000 1.000
51.320 18.000 1.000
51.340 15.000 1.000
51.360 23.000 1.000
51.380 23.000 1.000
51.400 19.000 1.000
51.420 20.000 1.000
51.440 16.000 1.000
51.460 19.000 1.000
51.480 18.000 1.000
51.500 23.000 1.000
51.520 19.000 1.000
51.540 21.000 1.000
51.560 13.000 1.000
51.580 14.000 1.000
51.600 16.000 1.000
51.620 19.000 1.000
51.640 19.000 1.000
51.660 12.000 1.000
51.680 18.000 1.000
51.700 18.000 1.000
51.720 19.000 1.000
51.740 22.000 1.000
51.760 19.000 1.000
51.780 26.000 1.000
51.800 21.000 1.000
51.820 24.000 1.000
51.840 20.000 1.000
51.860 24.000 1.000
51.880 16.000 1.000
51.900 24.000 1.000
51.920 17.000 1.000
51.940 25.000 1.000
51.960 17.000 1.000
51.980 22.000 1.000
52.000 33.000 1.000
52.020 24.000 1.000
52.040 23.000 1.000
52.060 25.000 1.000
52.080 23.000 1.000
52.100 25.000 1.000
52.120 21.000 1.000
52.140 22.000 1.000
52.160 23.000 1.000
52.180 23.000 1.000
52.200 26.000 1.000
52.220 23.000 1.000
52.240 29.000 1.000
52.260 28.000 1.000
52.280 27.000 1.000
52.300 23.000 1.000
52.320 29.000 1.000
52.340 32.000 1.000
52.360 30.000 1.000
52.380 27.000 1.000
52.400 34.000 1.000
52.420 25.000 1.000
52.440 24.000 1.000
52.460 32.000 1.000
52.480 27.000 1.000
52.500 26.000 1.000
52.520 30.000 1.000
52.540 28.000 1.000
52.560 32.000 1.000
52.580 30.000 1.000
52.600 33.000 1.000
52.620 25.000 1.000
52.640 25.000 1.000
52.660 27.000 1.000
52.680 27.000 1.000
52.700 21.000 1.000
52.720 24.000 1.000
52.740 29.000 1.000
52.760 23.000 1.000
52.780 28.000 1.000
52.800 20.000 1.000
52.820 27.000 1.000
52.840 33.000 1.000
52.860 34.000 1.000
52.880 24.000 1.000
52.900 31.000 1.000
52.920 31.000 1.000
52.940 34.000 1.000
52.960 42.000 1.000
52.980 29.000 1.000
53.000 32.000 1.000
53.020 26.000 1.000
53.040 31.000 1.000
53.060 30.000 1.000
53.080 24.000 1.000
53.100 31.000 1.000
53.120 29.000 1.000
53.140 33.000 1.000
53.160 26.000 1.000
53.180 23.000 1.000
53.200 31.000 1.000
53.220 32.000 1.000
53.240 36.000 1.000
53.260 26.000 1.000
53.280 23.000 1.000
53.300 30.000 1.000
53.320 35.000 1.000
53.340 29.000 1.000
53.360 34.000 1.000
53.380 35.000 1.000
53.400 31.000 1.000
53.420 33.000 1.000
53.440 34.000 1.000
53.460 36.000 1.000
53.480 40.000 1.000
53.500 40.000 1.000
53.520 31.000 1.000
53.540 31.000 1.000
53.560 35.000 1.000
53.580 30.000 1.000
53.600 36.000 1.000
53.620 37.000 1.000
53.640 30.000 1.000
53.660 40.000 1.000
53.680 34.000 1.000
53.700 36.000 1.000
53.720 40.000 1.000
53.740 33.000 1.000
53.760 32.000 1.000
53.780 45.000 1.000
53.800 48.000 1.000
53.820 44.000 1.000
53.840 31.000 1.000
53.860 47.000 1.000
53.880 35.000 1.000
53.900 30.000 1.000
53.920 35.000 1.000
53.940 36.000 1.000
53.960 32.000 1.000
53.980 35.000 1.000
54.000 48.000 1.000
54.020 39.000 1.000
54.040 37.000 1.000
54.060 41.000 1.000
54.080 54.000 1.000
54.100 53.000 1.000
54.120 51.000 1.000
54.140 48.000 1.000
54.160 43.000 1.000
54.180 50.000 1.000
54.200 52.000 1.000
54.220 53.000 1.000
54.240 42.000 1.000
54.260 54.000 1.000
54.280 60.000 1.000
54.300 58.000 1.000
54.320 66.000 1.000
54.340 66.000 1.000
54.360 67.000 1.000
54.380 75.000 1.000
54.400 75.000 1.000
54.420 81.000 1.000
54.440 83.000 1.000
54.460 87.000 1.000
54.480 82.000 1.000
54.500 84.000 1.000
54.520 88.000 1.000
54.540 93.000 1.000
54.560 98.000 1.000
54.580 86.000 1.000
54.600 84.000 1.000
54.620 66.000 1.000
54.640 64.000 1.000
54.660 64.000 1.000
54.680 57.000 1.000
54.700 61.000 1.000
54.720 59.000 1.000
54.740 53.000 1.000
54.760 51.000 1.000
54.780 43.000 1.000
54.800 38.000 1.000
54.820 43.000 1.000
54.840 36.000 1.000
54.860 38.000 1.000
54.880 37.000 1.000
54.900 37.000 1.000
54.920 31.000 1.000
54.940 37.000 1.000
54.960 24.000 1.000
54.980 25.000 1.000
55.000 22.000 1.000
55.020 25.000 1.000
55.040 25.000 1.000
55.060 27.000 1.000
55.080 33.000 1.000
55.100 27.000 1.000
55.120 22.000 1.000
55.140 24.000 1.000
55.160 30.000 1.000
55.180 29.000 1.000
55.200 25.000 1.000
55.220 22.000 1.000
55.240 16.000 1.000
55.260 24.000 1.000
55.280 22.000 1.000
55.300 18.000 1.000
55.320 23.000 1.000
55.340 22.000 1.000
55.360 27.000 1.000
55.380 17.000 1.000
55.400 18.000 1.000
55.420 18.000 1.000
55.440 22.000 1.000
55.460 17.000 1.000
55.480 23.000 1.000
55.500 18.000 1.000
55.520 12.000 1.000
55.540 15.000 1.000
55.560 19.000 1.000
55.580 23.000 1.000
55.600 18.000 1.000
55.620 25.000 1.000
55.640 21.000 1.000
55.660 17.000 1.000
55.680 12.000 1.000
55.700 19.000 1.000
55.720 17.000 1.000
55.740 14.000 1.000
55.760 19.000 1.000
55.780 21.000 1.000
55.800 14.000 1.000
55.820 17.000 1.000
55.840 20.000 1.000
55.860 20.000 1.000
55.880 15.000 1.000
55.900 12.000 1.000
55.920 11.000 1.000
55.940 11.000 1.000
55.960 18.000 1.000
55.980 20.000 1.000
56.000 21.000 1.000
56.020 16.000 1.000
56.040 19.000 1.000
56.060 17.000 1.000
56.080 18.000 1.000
56.100 18.000 1.000
56.120 18.000 1.000
56.140 8.000 1.000
56.160 16.000 1.000
56.180 18.000 1.000
56.200 17.000 1.000
56.220 14.000 1.000
56.240 14.000 1.000
56.260 18.000 1.000
56.280 18.000 1.000
56.300 22.000 1.000
56.320 17.000 1.000
56.340 20.000 1.000
56.360 23.000 1.000
56.380 18.000 1.000
56.400 19.000 1.000
56.420 14.000 1.000
56.440 19.000 1.000
56.460 16.000 1.000
56.480 18.000 1.000
56.500 19.000 1.000
56.520 13.000 1.000
56.540 13.000 1.000
56.560 12.000 1.000
56.580 17.000 1.000
56.600 14.000 1.000
56.620 17.000 1.000
56.640 14.000 1.000
56.660 16.000 1.000
56.680 13.000 1.000
56.700 19.000 1.000
56.720 15.000 1.000
56.740 13.000 1.000
56.760 26.000 1.000
56.780 23.000 1.000
56.800 12.000 1.000
56.820 15.000 1.000
56.840 15.000 1.000
56.860 15.000 1.000
56.880 20.000 1.000
56.900 19.000 1.000
56.920 16.000 1.000
56.940 18.000 1.000
56.960 16.000 1.000
56.980 18.000 1.000
57.000 13.000 1.000
57.020 14.000 1.000
57.040 17.000 1.000
57.060 15.000 1.000
57.080 10.000 1.000
57.100 23.000 1.000
57.120 23.000 1.000
57.140 18.000 1.000
57.160 13.000 1.000
57.180 16.000 1.000
57.200 17.000 1.000
57.220 17.000 1.000
57.240 14.000 1.000
57.260 12.000 1.000
57.280 17.000 1.000
57.300 16.000 1.000
57.320 24.000 1.000
57.340 17.000 1.000
57.360 15.000 1.000
57.380 15.000 1.000
57.400 17.000 1.000
57.420 17.000 1.000
57.440 16.000 1.000
57.460 16.000 1.000
57.480 13.000 1.000
57.500 8.000 1.000
57.520 14.000 1.000
57.540 15.000 1.000
57.560 20.000 1.000
57.580 20.000 1.000
57.600 16.000 1.000
57.620 12.000 1.000
57.640 17.000 1.000
57.660 27.000 1.000
57.680 20.000 1.000
57.700 25.000 1.000
57.720 15.000 1.000
57.740 9.000 1.000
57.760 17.000 1.000
57.780 15.000 1.000
57.800 14.000 1.000
57.820 18.000 1.000
57.840 17.000 1.000
57.860 14.000 1.000
57.880 17.000 1.000
57.900 16.000 1.000
57.920 20.000 1.000
57.940 17.000 1.000
57.960 8.000 1.000
57.980 10.000 1.000
58.000 14.000 1.000
58.020 14.000 1.000
58.040 14.000 1.000
58.060 7.000 1.000
58.080 12.000 1.000
58.100 20.000 1.000
58.120 12.000 1.000
58.140 15.000 1.000
58.160 13.000 1.000
58.180 10.000 1.000
58.200 16.000 1.000
58.220 17.000 1.000
58.240 14.000 1.000
58.260 13.000 1.000
58.280 12.000 1.000
58.300 15.000 1.000
58.320 18.000 1.000
58.340 15.000 1.000
58.360 17.000 1.000
58.380 18.000 1.000
58.400 13.000 1.000
58.420 12.000 1.000
58.440 12.000 1.000
58.460 12.000 1.000
58.480 15.000 1.000
58.500 17.000 1.000
58.520 26.000 1.000
58.540 14.000 1.000
58.560 16.000 1.000
58.580 17.000 1.000
58.600 13.000 1.000
58.620 9.000 1.000
58.640 9.000 1.000
58.660 18.000 1.000
58.680 19.000 1.000
58.700 14.000 1.000
58.720 15.000 1.000
58.740 11.000 1.000
58.760 15.000 1.000
58.780 12.000 1.000
58.800 12.000 1.000
58.820 8.000 1.000
58.840 12.000 1.000
58.860 11.000 1.000
58.880 13.000 1.000
58.900 15.000 1.000
58.920 11.000 1.000
58.940 15.000 1.000
58.960 16.000 1.000
58.980 12.000 1.000
59.000 13.000 1.000
59.020 16.000 1.000
59.040 12.000 1.000
59.060 14.000 1.000
59.080 11.000 1.000
59.100 13.000 1.000
59.120 21.000 1.000
59.140 16.000 1.000
59.160 17.000 1.000
59.180 9.000 1.000
59.200 6.000 1.000
59.220 12.000 1.000
59.240 13.000 1.000
59.260 14.000 1.000
59.280 13.000 1.000
59.300 12.000 1.000
59.320 16.000 1.000
59.340 15.000 1.000
59.360 12.000 1.000
59.380 11.000 1.000
59.400 13.000 1.000
59.420 12.000 1.000
59.440 8.000 1.000
59.460 12.000 1.000
59.480 9.000 1.000
59.500 14.000 1.000
59.520 11.000 1.000
59.540 19.000 1.000
59.560 17.000 1.000
59.580 11.000 1.000
59.600 13.000 1.000
59.620 17.000 1.000
59.640 15.000 1.000
59.660 16.000 1.000
59.680 12.000 1.000
59.700 14.000 1.000
59.720 16.000 1.000
59.740 14.000 1.000
59.760 15.000 1.000
59.780 19.000 1.000
59.800 14.000 1.000
59.820 13.000 1.000
59.840 9.000 1.000
59.860 15.000 1.000
59.880 20.000 1.000
59.900 14.000 1.000
59.920 15.000 1.000
59.940 19.000 1.000
59.960 16.000 1.000
59.980 10.000 1.000
60.000 13.000 1.000
60.020 19.000 1.000
60.040 18.000 1.000
60.060 19.000 1.000
60.080 12.000 1.000
60.100 16.000 1.000
60.120 11.000 1.000
60.140 8.000 1.000
60.160 11.000 1.000
60.180 14.000 1.000
60.200 11.000 1.000
60.220 10.000 1.000
60.240 7.000 1.000
60.260 10.000 1.000
60.280 13.000 1.000
60.300 20.000 1.000
60.320 11.000 1.000
60.340 16.000 1.000
60.360 9.000 1.000
60.380 11.000 1.000
60.400 16.000 1.000
60.420 18.000 1.000
60.440 18.000 1.000
60.460 15.000 1.000
60.480 13.000 1.000
60.500 14.000 1.000
60.520 16.000 1.000
60.540 14.000 1.000
60.560 15.000 1.000
60.580 15.000 1.000
60.600 17.000 1.000
60.620 13.000 1.000
60.640 15.000 1.000
60.660 15.000 1.000
60.680 18.000 1.000
60.700 12.000 1.000
60.720 15.000 1.000
60.740 14.000 1.000
60.760 11.000 1.000
60.780 9.000 1.000
60.800 13.000 1.000
60.820 17.000 1.000
60.840 16.000 1.000
60.860 14.000 1.000
60.880 16.000 1.000
60.900 16.000 1.000
60.920 16.000 1.000
60.940 17.000 1.000
60.960 14.000 1.000
60.980 22.000 1.000
61.000 17.000 1.000
61.020 15.000 1.000
61.040 14.000 1.000
61.060 15.000 1.000
61.080 17.000 1.000
61.100 21.000 1.000
61.120 20.000 1.000
61.140 16.000 1.000
61.160 16.000 1.000
61.180 15.000 1.000
61.200 19.000 1.000
61.220 16.000 1.000
61.240 11.000 1.000
61.260 14.000 1.000
61.280 22.000 1.000
61.300 24.000 1.000
61.320 19.000 1.000
61.340 21.000 1.000
61.360 22.000 1.000
61.380 18.000 1.000
61.400 14.000 1.000
61.420 17.000 1.000
61.440 17.000 1.000
61.460 23.000 1.000
61.480 20.000 1.000
61.500 21.000 1.000
61.520 16.000 1.000
61.540 21.000 1.000
61.560 32.000 1.000
61.580 21.000 1.000
61.600 37.000 1.000
61.620 27.000 1.000
61.640 33.000 1.000
61.660 21.000 1.000
61.680 23.000 1.000
61.700 25.000 1.000
61.720 36.000 1.000
61.740 24.000 1.000
61.760 26.000 1.000
61.780 18.000 1.000
61.800 23.000 1.000
61.820 27.000 1.000
61.840 23.000 1.000
61.860 23.000 1.000
61.880 20.000 1.000
61.900 21.000 1.000
61.920 28.000 1.000
61.940 26.000 1.000
61.960 28.000 1.000
61.980 21.000 1.000
62.000 24.000 1.000
62.020 26.000 1.000
62.040 22.000 1.000
62.060 17.000 1.000
62.080 20.000 1.000
62.100 16.000 1.000
62.120 17.000 1.000
62.140 23.000 1.000
62.160 13.000 1.000
62.180 13.000 1.000
62.200 18.000 1.000
62.220 21.000 1.000
62.240 23.000 1.000
62.260 17.000 1.000
62.280 19.000 1.000
62.300 23.000 1.000
62.320 22.000 1.000
62.340 18.000 1.000
62.360 9.000 1.000
62.380 19.000 1.000
62.400 31.000 1.000
62.420 22.000 1.000
62.440 15.000 1.000
62.460 15.000 1.000
62.480 18.000 1.000
62.500 16.000 1.000
62.520 14.000 1.000
62.540 15.000 1.000
62.560 17.000 1.000
62.580 13.000 1.000
62.600 13.000 1.000
62.620 9.000 1.000
62.640 13.000 1.000
62.660 16.000 1.000
62.680 15.000 1.000
62.700 11.000 1.000
62.720 18.000 1.000
62.740 12.000 1.000
62.760 10.000 1.000
62.780 10.000 1.000
62.800 10.000 1.000
62.820 11.000 1.000
62.840 17.000 1.000
62.860 18.000 1.000
62.880 19.000 1.000
62.900 15.000 1.000
62.920 14.000 1.000
62.940 14.000 1.000
62.960 16.000 1.000
62.980 12.000 1.000
63.000 17.000 1.000
63.020 13.000 1.000
63.040 13.000 1.000
63.060 18.000 1.000
63.080 15.000 1.000
63.100 17.000 1.000
63.120 18.000 1.000
63.140 15.000 1.000
63.160 16.000 1.000
63.180 12.000 1.000
63.200 13.000 1.000
63.220 17.000 1.000
63.240 22.000 1.000
63.260 12.000 1.000
63.280 15.000 1.000
63.300 11.000 1.000
63.320 22.000 1.000
63.340 10.000 1.000
63.360 11.000 1.000
63.380 10.000 1.000
63.400 14.000 1.000
63.420 18.000 1.000
63.440 14.000 1.000
63.460 13.000 1.000
63.480 17.000 1.000
63.500 11.000 1.000
63.520 9.000 1.000
63.540 10.000 1.000
63.560 11.000 1.000
63.580 10.000 1.000
63.600 14.000 1.000
63.620 13.000 1.000
63.640 9.000 1.000
63.660 12.000 1.000
63.680 13.000 1.000
63.700 10.000 1.000
63.720 10.000 1.000
63.740 15.000 1.000
63.760 18.000 1.000
63.780 14.000 1.000
63.800 12.000 1.000
63.820 18.000 1.000
63.840 6.000 1.000
63.860 11.000 1.000
63.880 11.000 1.000
63.900 12.000 1.000
63.920 9.000 1.000
63.940 13.000 1.000
63.960 17.000 1.000
63.980 14.000 1.000
64.000 15.000 1.000
64.020 14.000 1.000
64.040 16.000 1.000
64.060 13.000 1.000
64.080 13.000 1.000
64.100 9.000 1.000
64.120 10.000 1.000
64.140 16.000 1.000
64.160 12.000 1.000
64.180 13.000 1.000
64.200 17.000 1.000
64.220 12.000 1.000
64.240 13.000 1.000
64.260 17.000 1.000
64.280 14.000 1.000
64.300 12.000 1.000
64.320 12.000 1.000
64.340 19.000 1.000
64.360 11.000 1.000
64.380 12.000 1.000
64.400 15.000 1.000
64.420 10.000 1.000
64.440 13.000 1.000
64.460 16.000 1.000
64.480 14.000 1.000
64.500 13.000 1.000
64.520 16.000 1.000
64.540 14.000 1.000
64.560 17.000 1.000
64.580 13.000 1.000
64.600 16.000 1.000
64.620 16.000 1.000
64.640 15.000 1.000
64.660 11.000 1.000
64.680 15.000 1.000
64.700 8.000 1.000
64.720 10.000 1.000
64.740 14.000 1.000
64.760 17.000 1.000
64.780 12.000 1.000
64.800 16.000 1.000
64.820 12.000 1.000
64.840 13.000 1.000
64.860 17.000 1.000
64.880 9.000 1.000
64.900 4.000 1.000
64.920 7.000 1.000
64.940 8.000 1.000
64.960 13.000 1.000
64.980 18.000 1.000
65.000 16.000 1.000
65.020 12.000 1.000
65.040 9.000 1.000
65.060 14.000 1.000
65.080 14.000 1.000
65.100 18.000 1.000
65.120 10.000 1.000
65.140 13.000 1.000
65.160 12.000 1.000
65.180 14.000 1.000
65.200 15.000 1.000
65.220 12.000 1.000
65.240 13.000 1.000
65.260 15.000 1.000
65.280 10.000 1.000
65.300 13.000 1.000
65.320 18.000 1.000
65.340 17.000 1.000
65.360 12.000 1.000
65.380 11.000 1.000
65.400 15.000 1.000
65.420 10.000 1.000
65.440 12.000 1.000
65.460 12.000 1.000
65.480 11.000 1.000
65.500 15.000 1.000
65.520 19.000 1.000
65.540 17.000 1.000
65.560 17.000 1.000
65.580 18.000 1.000
65.600 14.000 1.000
65.620 17.000 1.000
65.640 15.000 1.000
65.660 17.000 1.000
65.680 11.000 1.000
65.700 10.000 1.000
65.720 10.000 1.000
65.740 15.000 1.000
65.760 13.000 1.000
65.780 14.000 1.000
65.800 10.000 1.000
65.820 16.000 1.000
65.840 19.000 1.000
65.860 14.000 1.000
65.880 16.000 1.000
65.900 11.000 1.000
65.920 14.000 1.000
65.940 16.000 1.000
65.960 16.000 1.000
65.980 13.000 1.000
66.000 12.000 1.000
66.020 16.000 1.000
66.040 12.000 1.000
66.060 12.000 1.000
66.080 12.000 1.000
66.100 9.000 1.000
66.120 11.000 1.000
66.140 17.000 1.000
66.160 13.000 1.000
66.180 18.000 1.000
66.200 12.000 1.000
66.220 8.000 1.000
66.240 11.000 1.000
66.260 11.000 1.000
66.280 16.000 1.000
66.300 11.000 1.000
66.320 11.000 1.000
66.340 12.000 1.000
66.360 13.000 1.000
66.380 15.000 1.000
66.400 9.000 1.000
66.420 7.000 1.000
66.440 13.000 1.000
66.460 15.000 1.000
66.480 11.000 1.000
66.500 10.000 1.000
66.520 11.000 1.000
66.540 16.000 1.000
66.560 10.000 1.000
66.580 11.000 1.000
66.600 17.000 1.000
66.620 19.000 1.000
66.640 9.000 1.000
66.660 10.000 1.000
66.680 11.000 1.000
66.700 7.000 1.000
66.720 14.000 1.000
66.740 17.000 1.000
66.760 12.000 1.000
66.780 15.000 1.000
66.800 16.000 1.000
66.820 13.000 1.000
66.840 14.000 1.000
66.860 12.000 1.000
66.880 14.000 1.000
66.900 16.000 1.000
66.920 10.000 1.000
66.940 13.000 1.000
66.960 11.000 1.000
66.980 10.000 1.000
67.000 13.000 1.000
67.020 16.000 1.000
67.040 10.000 1.000
67.060 15.000 1.000
67.080 13.000 1.000
67.100 7.000 1.000
67.120 12.000 1.000
67.140 11.000 1.000
67.160 12.000 1.000
67.180 13.000 1.000
67.200 10.000 1.000
67.220 8.000 1.000
67.240 14.000 1.000
67.260 12.000 1.000
67.280 9.000 1.000
67.300 17.000 1.000
67.320 13.000 1.000
67.340 9.000 1.000
67.360 12.000 1.000
67.380 15.000 1.000
67.400 18.000 1.000
67.420 14.000 1.000
67.440 16.000 1.000
67.460 12.000 1.000
67.480 7.000 1.000
67.500 11.000 1.000
67.520 8.000 1.000
67.540 14.000 1.000
67.560 7.000 1.000
67.580 13.000 1.000
67.600 9.000 1.000
67.620 9.000 1.000
67.640 10.000 1.000
67.660 14.000 1.000
67.680 16.000 1.000
67.700 12.000 1.000
67.720 7.000 1.000
67.740 9.000 1.000
67.760 14.000 1.000
67.780 17.000 1.000
67.800 13.000 1.000
67.820 8.000 1.000
67.840 11.000 1.000
67.860 14.000 1.000
67.880 9.000 1.000
67.900 16.000 1.000
67.920 12.000 1.000
67.940 14.000 1.000
67.960 10.000 1.000
67.980 13.000 1.000
68.000 10.000 1.000
68.020 10.000 1.000
68.040 8.000 1.000
68.060 13.000 1.000
68.080 8.000 1.000
68.100 15.000 1.000
68.120 12.000 1.000
68.140 7.000 1.000
68.160 17.000 1.000
68.180 16.000 1.000
68.200 12.000 1.000
68.220 16.000 1.000
68.240 17.000 1.000
68.260 12.000 1.000
68.280 12.000 1.000
68.300 15.000 1.000
68.320 7.000 1.000
68.340 9.000 1.000
68.360 18.000 1.000
68.380 13.000 1.000
68.400 11.000 1.000
68.420 15.000 1.000
68.440 10.000 1.000
68.460 11.000 1.000
68.480 9.000 1.000
68.500 10.000 1.000
68.520 10.000 1.000
68.540 17.000 1.000
68.560 12.000 1.000
68.580 8.000 1.000
68.600 14.000 1.000
68.620 19.000 1.000
68.640 14.000 1.000
68.660 14.000 1.000
68.680 10.000 1.000
68.700 13.000 1.000
68.720 12.000 1.000
68.740 13.000 1.000
68.760 7.000 1.000
68.780 13.000 1.000
68.800 11.000 1.000
68.820 13.000 1.000
68.840 13.000 1.000
68.860 16.000 1.000
68.880 12.000 1.000
68.900 11.000 1.000
68.920 14.000 1.000
68.940 10.000 1.000
68.960 7.000 1.000
68.980 10.000 1.000
69.000 13.000 1.000
69.020 15.000 1.000
69.040 15.000 1.000
69.060 11.000 1.000
69.080 17.000 1.000
69.100 15.000 1.000
69.120 11.000 1.000
69.140 11.000 1.000
69.160 14.000 1.000
69.180 14.000 1.000
69.200 7.000 1.000
69.220 10.000 1.000
69.240 8.000 1.000
69.260 11.000 1.000
69.280 15.000 1.000
69.300 14.000 1.000
69.320 6.000 1.000
69.340 8.000 1.000
69.360 12.000 1.000
69.380 13.000 1.000
69.400 11.000 1.000
69.420 15.000 1.000
69.440 12.000 1.000
69.460 15.000 1.000
69.480 13.000 1.000
69.500 11.000 1.000
69.520 13.000 1.000
69.540 14.000 1.000
69.560 13.000 1.000
69.580 9.000 1.000
69.600 11.000 1.000
69.620 9.000 1.000
69.640 6.000 1.000
69.660 8.000 1.000
69.680 6.000 1.000
69.700 14.000 1.000
69.720 17.000 1.000
69.740 12.000 1.000
69.760 10.000 1.000
69.780 14.000 1.000
69.800 17.000 1.000
69.820 14.000 1.000
69.840 12.000 1.000
69.860 12.000 1.000
69.880 19.000 1.000
69.900 12.000 1.000
69.920 13.000 1.000
69.940 8.000 1.000
69.960 10.000 1.000
69.980 17.000 1.000
70.000 14.000 1.000
70.020 13.000 1.000
70.040 11.000 1.000
70.060 12.000 1.000
70.080 13.000 1.000
70.100 11.000 1.000
70.120 10.000 1.000
70.140 10.000 1.000
70.160 17.000 1.000
70.180 19.000 1.000
70.200 18.000 1.000
70.220 12.000 1.000
70.240 8.000 1.000
70.260 10.000 1.000
70.280 13.000 1.000
70.300 13.000 1.000
70.320 11.000 1.000
70.340 13.000 1.000
70.360 12.000 1.000
70.380 14.000 1.000
70.400 15.000 1.000
70.420 10.000 1.000
70.440 12.000 1.000
70.460 13.000 1.000
70.480 14.000 1.000
70.500 15.000 1.000
70.520 11.000 1.000
70.540 12.000 1.000
70.560 14.000 1.000
70.580 13.000 1.000
70.600 9.000 1.000
70.620 12.000 1.000
70.640 15.000 1.000
70.660 12.000 1.000
70.680 14.000 1.000
70.700 10.000 1.000
70.720 12.000 1.000
70.740 14.000 1.000
70.760 14.000 1.000
70.780 17.000 1.000
70.800 11.000 1.000
70.820 12.000 1.000
70.840 7.000 1.000
70.860 12.000 1.000
70.880 15.000 1.000
70.900 10.000 1.000
70.920 12.000 1.000
70.940 10.000 1.000
70.960 7.000 1.000
70.980 11.000 1.000
71.000 6.000 1.000
71.020 14.000 1.000
71.040 13.000 1.000
71.060 9.000 1.000
71.080 14.000 1.000
71.100 15.000 1.000
71.120 13.000 1.000
71.140 10.000 1.000
71.160 6.000 1.000
71.180 11.000 1.000
71.200 11.000 1.000
71.220 12.000 1.000
71.240 15.000 1.000
71.260 10.000 1.000
71.280 10.000 1.000
71.300 14.000 1.000
71.320 9.000 1.000
71.340 5.000 1.000
71.360 7.000 1.000
71.380 9.000 1.000
71.400 9.000 1.000
71.420 15.000 1.000
71.440 13.000 1.000
71.460 13.000 1.000
71.480 10.000 1.000
71.500 10.000 1.000
71.520 10.000 1.000
71.540 14.000 1.000
71.560 13.000 1.000
71.580 16.000 1.000
71.600 14.000 1.000
71.620 11.000 1.000
71.640 16.000 1.000
71.660 18.000 1.000
71.680 5.000 1.000
71.700 8.000 1.000
71.720 9.000 1.000
71.740 11.000 1.000
71.760 11.000 1.000
71.780 9.000 1.000
71.800 15.000 1.000
71.820 10.000 1.000
71.840 4.000 1.000
71.860 12.000 1.000
71.880 14.000 1.000
71.900 16.000 1.000
71.920 5.000 1.000
71.940 8.000 1.000
71.960 9.000 1.000
71.980 16.000 1.000
72.000 13.000 1.000
72.020 12.000 1.000
72.040 10.000 1.000
72.060 16.000 1.000
72.080 12.000 1.000
72.100 11.000 1.000
72.120 13.000 1.000
72.140 13.000 1.000
72.160 14.000 1.000
72.180 16.000 1.000
72.200 16.000 1.000
72.220 16.000 1.000
72.240 11.000 1.000
72.260 11.000 1.000
72.280 12.000 1.000
72.300 11.000 1.000
72.320 13.000 1.000
72.340 11.000 1.000
72.360 12.000 1.000
72.380 17.000 1.000
72.400 16.000 1.000
72.420 15.000 1.000
72.440 11.000 1.000
72.460 11.000 1.000
72.480 12.000 1.000
72.500 13.000 1.000
72.520 15.000 1.000
72.540 10.000 1.000
72.560 16.000 1.000
72.580 15.000 1.000
72.600 16.000 1.000
72.620 15.000 1.000
72.640 16.000 1.000
72.660 16.000 1.000
72.680 11.000 1.000
72.700 9.000 1.000
72.720 14.000 1.000
72.740 14.000 1.000
72.760 18.000 1.000
72.780 9.000 1.000
72.800 16.000 1.000
72.820 14.000 1.000
72.840 13.000 1.000
72.860 17.000 1.000
72.880 17.000 1.000
72.900 15.000 1.000
72.920 17.000 1.000
72.940 15.000 1.000
72.960 19.000 1.000
72.980 16.000 1.000
73.000 17.000 1.000
73.020 12.000 1.000
73.040 11.000 1.000
73.060 10.000 1.000
73.080 18.000 1.000
73.100 21.000 1.000
73.120 20.000 1.000
73.140 15.000 1.000
73.160 14.000 1.000
73.180 16.000 1.000
73.200 12.000 1.000
73.220 18.000 1.000
73.240 9.000 1.000
73.260 14.000 1.000
73.280 13.000 1.000
73.300 13.000 1.000
73.320 8.000 1.000
73.340 13.000 1.000
73.360 23.000 1.000
73.380 15.000 1.000
73.400 17.000 1.000
73.420 8.000 1.000
73.440 18.000 1.000
73.460 16.000 1.000
73.480 11.000 1.000
73.500 14.000 1.000
73.520 10.000 1.000
73.540 13.000 1.000
73.560 10.000 1.000
73.580 15.000 1.000
73.600 11.000 1.000
73.620 10.000 1.000
73.640 14.000 1.000
73.660 15.000 1.000
73.680 19.000 1.000
73.700 15.000 1.000
73.720 14.000 1.000
73.740 9.000 1.000
73.760 14.000 1.000
73.780 19.000 1.000
73.800 21.000 1.000
73.820 18.000 1.000
73.840 20.000 1.000
73.860 21.000 1.000
73.880 19.000 1.000
73.900 21.000 1.000
73.920 9.000 1.000
73.940 13.000 1.000
73.960 14.000 1.000
73.980 13.000 1.000
74.000 15.000 1.000
74.020 9.000 1.000
74.040 12.000 1.000
74.060 18.000 1.000
74.080 12.000 1.000
74.100 9.000 1.000
74.120 17.000 1.000
74.140 14.000 1.000
74.160 11.000 1.000
74.180 16.000 1.000
74.200 17.000 1.000
74.220 17.000 1.000
74.240 11.000 1.000
74.260 15.000 1.000
74.280 7.000 1.000
74.300 9.000 1.000
74.320 14.000 1.000
74.340 17.000 1.000
74.360 17.000 1.000
74.380 12.000 1.000
74.400 14.000 1.000
74.420 17.000 1.000
74.440 16.000 1.000
74.460 9.000 1.000
74.480 15.000 1.000
74.500 16.000 1.000
74.520 22.000 1.000
74.540 20.000 1.000
74.560 16.000 1.000
74.580 14.000 1.000
74.600 15.000 1.000
74.620 16.000 1.000
74.640 10.000 1.000
74.660 13.000 1.000
74.680 8.000 1.000
74.700 11.000 1.000
74.720 11.000 1.000
74.740 17.000 1.000
74.760 11.000 1.000
74.780 9.000 1.000
74.800 9.000 1.000
74.820 15.000 1.000
74.840 14.000 1.000
74.860 10.000 1.000
74.880 15.000 1.000
74.900 9.000 1.000
74.920 12.000 1.000
74.940 18.000 1.000
74.960 19.000 1.000
74.980 11.000 1.000
75.000 9.000 1.000
75.020 19.000 1.000
75.040 11.000 1.000
75.060 11.000 1.000
75.080 12.000 1.000
75.100 13.000 1.000
75.120 13.000 1.000
75.140 24.000 1.000
75.160 12.000 1.000
75.180 10.000 1.000
75.200 14.000 1.000
75.220 12.000 1.000
75.240 13.000 1.000
75.260 12.000 1.000
75.280 14.000 1.000
75.300 12.000 1.000
75.320 8.000 1.000
75.340 9.000 1.000
75.360 14.000 1.000
75.380 15.000 1.000
75.400 11.000 1.000
75.420 13.000 1.000
75.440 12.000 1.000
75.460 7.000 1.000
75.480 11.000 1.000
75.500 12.000 1.000
75.520 16.000 1.000
75.540 13.000 1.000
75.560 10.000 1.000
75.580 11.000 1.000
75.600 14.000 1.000
75.620 14.000 1.000
75.640 9.000 1.000
75.660 16.000 1.000
75.680 13.000 1.000
75.700 17.000 1.000
75.720 10.000 1.000
75.740 13.000 1.000
75.760 12.000 1.000
75.780 14.000 1.000
75.800 12.000 1.000
75.820 7.000 1.000
75.840 11.000 1.000
75.860 13.000 1.000
75.880 15.000 1.000
75.900 9.000 1.000
75.920 8.000 1.000
75.940 12.000 1.000
75.960 13.000 1.000
75.980 10.000 1.000
76.000 12.000 1.000
76.020 16.000 1.000
76.040 13.000 1.000
76.060 9.000 1.000
76.080 12.000 1.000
76.100 17.000 1.000
76.120 19.000 1.000
76.140 19.000 1.000
76.160 7.000 1.000
76.180 14.000 1.000
76.200 12.000 1.000
76.220 11.000 1.000
76.240 21.000 1.000
76.260 12.000 1.000
76.280 9.000 1.000
76.300 9.000 1.000
76.320 12.000 1.000
76.340 14.000 1.000
76.360 12.000 1.000
76.380 10.000 1.000
76.400 11.000 1.000
76.420 12.000 1.000
76.440 11.000 1.000
76.460 19.000 1.000
76.480 13.000 1.000
76.500 14.000 1.000
76.520 18.000 1.000
76.540 15.000 1.000
76.560 17.000 1.000
76.580 11.000 1.000
76.600 10.000 1.000
76.620 14.000 1.000
76.640 18.000 1.000
76.660 14.000 1.000
76.680 16.000 1.000
76.700 17.000 1.000
76.720 18.000 1.000
76.740 15.000 1.000
76.760 12.000 1.000
76.780 12.000 1.000
76.800 17.000 1.000
76.820 15.000 1.000
76.840 8.000 1.000
76.860 12.000 1.000
76.880 7.000 1.000
76.900 11.000 1.000
76.920 19.000 1.000
76.940 12.000 1.000
76.960 14.000 1.000
76.980 13.000 1.000
77.000 13.000 1.000
77.020 21.000 1.000
77.040 16.000 1.000
77.060 14.000 1.000
77.080 17.000 1.000
77.100 13.000 1.000
77.120 8.000 1.000
77.140 9.000 1.000
77.160 9.000 1.000
77.180 14.000 1.000
77.200 16.000 1.000
77.220 13.000 1.000
77.240 9.000 1.000
77.260 9.000 1.000
77.280 15.000 1.000
77.300 15.000 1.000
77.320 15.000 1.000
77.340 15.000 1.000
77.360 16.000 1.000
77.380 16.000 1.000
77.400 10.000 1.000
77.420 10.000 1.000
77.440 11.000 1.000
77.460 9.000 1.000
77.480 10.000 1.000
77.500 13.000 1.000
77.520 21.000 1.000
77.540 19.000 1.000
77.560 21.000 1.000
77.580 12.000 1.000
77.600 14.000 1.000
77.620 12.000 1.000
77.640 19.000 1.000
77.660 15.000 1.000
77.680 17.000 1.000
77.700 17.000 1.000
77.720 18.000 1.000
77.740 13.000 1.000
77.760 9.000 1.000
77.780 10.000 1.000
77.800 11.000 1.000
77.820 14.000 1.000
77.840 9.000 1.000
77.860 14.000 1.000
77.880 10.000 1.000
77.900 10.000 1.000
77.920 15.000 1.000
77.940 11.000 1.000
77.960 12.000 1.000
77.980 16.000 1.000
78.000 12.000 1.000
78.020 8.000 1.000
78.040 17.000 1.000
78.060 18.000 1.000
78.080 13.000 1.000
78.100 15.000 1.000
78.120 15.000 1.000
78.140 5.000 1.000
78.160 8.000 1.000
78.180 20.000 1.000
78.200 14.000 1.000
78.220 14.000 1.000
78.240 10.000 1.000
78.260 6.000 1.000
78.280 15.000 1.000
78.300 14.000 1.000
78.320 10.000 1.000
78.340 12.000 1.000
78.360 17.000 1.000
78.380 11.000 1.000
78.400 11.000 1.000
78.420 10.000 1.000
78.440 10.000 1.000
78.460 16.000 1.000
78.480 16.000 1.000
78.500 12.000 1.000
78.520 10.000 1.000
78.540 10.000 1.000
78.560 11.000 1.000
78.580 16.000 1.000
78.600 10.000 1.000
78.620 9.000 1.000
78.640 13.000 1.000
78.660 11.000 1.000
78.680 8.000 1.000
78.700 12.000 1.000
78.720 14.000 1.000
78.740 13.000 1.000
78.760 10.000 1.000
78.780 8.000 1.000
78.800 12.000 1.000
78.820 13.000 1.000
78.840 9.000 1.000
78.860 11.000 1.000
78.880 12.000 1.000
78.900 12.000 1.000
78.920 12.000 1.000
78.940 13.000 1.000
78.960 10.000 1.000
78.980 14.000 1.000
79.000 13.000 1.000
79.020 10.000 1.000
79.040 12.000 1.000
79.060 16.000 1.000
79.080 11.000 1.000
79.100 7.000 1.000
79.120 10.000 1.000
79.140 14.000 1.000
79.160 13.000 1.000
79.180 11.000 1.000
79.200 10.000 1.000
79.220 11.000 1.000
79.240 16.000 1.000
79.260 12.000 1.000
79.280 11.000 1.000
79.300 15.000 1.000
79.320 13.000 1.000
79.340 9.000 1.000
79.360 10.000 1.000
79.380 11.000 1.000
79.400 13.000 1.000
79.420 14.000 1.000
79.440 13.000 1.000
79.460 10.000 1.000
79.480 7.000 1.000
79.500 10.000 1.000
79.520 14.000 1.000
79.540 12.000 1.000
79.560 15.000 1.000
79.580 10.000 1.000
79.600 13.000 1.000
79.620 12.000 1.000
79.640 16.000 1.000
79.660 16.000 1.000
79.680 19.000 1.000
79.700 14.000 1.000
79.720 6.000 1.000
79.740 8.000 1.000
79.760 13.000 1.000
79.780 11.000 1.000
79.800 17.000 1.000
79.820 10.000 1.000
79.840 7.000 1.000
79.860 18.000 1.000
79.880 10.000 1.000
79.900 13.000 1.000
79.920 8.000 1.000
79.940 11.000 1.000
79.960 11.000 1.000
79.980 12.000 1.000
80.000 8.000 1.000
80.020 12.000 1.000
80.040 11.000 1.000
80.060 15.000 1.000
80.080 10.000 1.000
80.100 9.000 1.000
80.120 10.000 1.000
80.140 12.000 1.000
80.160 6.000 1.000
80.180 11.000 1.000
80.200 10.000 1.000
80.220 20.000 1.000
80.240 7.000 1.000
80.260 14.000 1.000
80.280 9.000 1.000
80.300 13.000 1.000
80.320 11.000 1.000
80.340 9.000 1.000
80.360 8.000 1.000
80.380 10.000 1.000
80.400 12.000 1.000
80.420 11.000 1.000
80.440 8.000 1.000
80.460 9.000 1.000
80.480 8.000 1.000
80.500 8.000 1.000
80.520 12.000 1.000
80.540 9.000 1.000
80.560 8.000 1.000
80.580 9.000 1.000
80.600 9.000 1.000
80.620 9.000 1.000
80.640 14.000 1.000
80.660 12.000 1.000
80.680 11.000 1.000
80.700 9.000 1.000
80.720 7.000 1.000
80.740 14.000 1.000
80.760 8.000 1.000
80.780 14.000 1.000
80.800 9.000 1.000
80.820 14.000 1.000
80.840 13.000 1.000
80.860 5.000 1.000
80.880 13.000 1.000
80.900 11.000 1.000
80.920 8.000 1.000
80.940 7.000 1.000
80.960 12.000 1.000
80.980 13.000 1.000
81.000 10.000 1.000
81.020 11.000 1.000
81.040 11.000 1.000
81.060 10.000 1.000
81.080 8.000 1.000
81.100 11.000 1.000
81.120 7.000 1.000
81.140 7.000 1.000
81.160 15.000 1.000
81.180 14.000 1.000
81.200 11.000 1.000
81.220 7.000 1.000
81.240 7.000 1.000
81.260 15.000 1.000
81.280 8.000 1.000
81.300 10.000 1.000
81.320 7.000 1.000
81.340 9.000 1.000
81.360 13.000 1.000
81.380 16.000 1.000
81.400 10.000 1.000
81.420 12.000 1.000
81.440 15.000 1.000
81.460 11.000 1.000
81.480 9.000 1.000
81.500 18.000 1.000
81.520 10.000 1.000
81.540 17.000 1.000
81.560 12.000 1.000
81.580 11.000 1.000
81.600 13.000 1.000
81.620 9.000 1.000
81.640 12.000 1.000
81.660 11.000 1.000
81.680 6.000 1.000
81.700 10.000 1.000
81.720 5.000 1.000
81.740 9.000 1.000
81.760 12.000 1.000
81.780 13.000 1.000
81.800 11.000 1.000
81.820 15.000 1.000
81.840 9.000 1.000
81.860 7.000 1.000
81.880 9.000 1.000
81.900 6.000 1.000
81.920 16.000 1.000
81.940 15.000 1.000
81.960 10.000 1.000
81.980 9.000 1.000
82.000 16.000 1.000
82.020 11.000 1.000
82.040 12.000 1.000
82.060 10.000 1.000
82.080 11.000 1.000
82.100 13.000 1.000
82.120 8.000 1.000
82.140 14.000 1.000
82.160 12.000 1.000
82.180 9.000 1.000
82.200 9.000 1.000
82.220 13.000 1.000
82.240 10.000 1.000
82.260 14.000 1.000
82.280 12.000 1.000
82.300 13.000 1.000
82.320 6.000 1.000
82.340 15.000 1.000
82.360 18.000 1.000
82.380 12.000 1.000
82.400 12.000 1.000
82.420 14.000 1.000
82.440 11.000 1.000
82.460 13.000 1.000
82.480 12.000 1.000
82.500 9.000 1.000
82.520 8.000 1.000
82.540 7.000 1.000
82.560 9.000 1.000
82.580 6.000 1.000
82.600 8.000 1.000
82.620 5.000 1.000
82.640 7.000 1.000
82.660 11.000 1.000
82.680 10.000 1.000
82.700 10.000 1.000
82.720 10.000 1.000
82.740 12.000 1.000
82.760 10.000 1.000
82.780 18.000 1.000
82.800 13.000 1.000
82.820 11.000 1.000
82.840 13.000 1.000
82.860 10.000 1.000
82.880 9.000 1.000
82.900 14.000 1.000
82.920 12.000 1.000
82.940 7.000 1.000
82.960 8.000 1.000
82.980 5.000 1.000
83.000 15.000 1.000
83.020 16.000 1.000
83.040 12.000 1.000
83.060 9.000 1.000
83.080 6.000 1.000
83.100 16.000 1.000
83.120 10.000 1.000
83.140 11.000 1.000
83.160 11.000 1.000
83.180 11.000 1.000
83.200 11.000 1.000
83.220 9.000 1.000
83.240 9.000 1.000
83.260 13.000 1.000
83.280 14.000 1.000
83.300 10.000 1.000
83.320 8.000 1.000
83.340 10.000 1.000
83.360 10.000 1.000
83.380 13.000 1.000
83.400 6.000 1.000
83.420 10.000 1.000
83.440 11.000 1.000
83.460 12.000 1.000
83.480 12.000 1.000
83.500 15.000 1.000
83.520 10.000 1.000
83.540 9.000 1.000
83.560 8.000 1.000
83.580 10.000 1.000
83.600 11.000 1.000
83.620 11.000 1.000
83.640 8.000 1.000
83.660 11.000 1.000
83.680 10.000 1.000
83.700 21.000 1.000
83.720 16.000 1.000
83.740 13.000 1.000
83.760 14.000 1.000
83.780 15.000 1.000
83.800 13.000 1.000
83.820 12.000 1.000
83.840 8.000 1.000
83.860 12.000 1.000
83.880 13.000 1.000
83.900 15.000 1.000
83.920 11.000 1.000
83.940 12.000 1.000
83.960 12.000 1.000
83.980 13.000 1.000
84.000 9.000 1.000
84.020 9.000 1.000
84.040 10.000 1.000
84.060 12.000 1.000
84.080 11.000 1.000
84.100 17.000 1.000
84.120 10.000 1.000
84.140 14.000 1.000
84.160 9.000 1.000
84.180 14.000 1.000
84.200 10.000 1.000
84.220 9.000 1.000
84.240 16.000 1.000
84.260 11.000 1.000
84.280 11.000 1.000
84.300 13.000 1.000
84.320 12.000 1.000
84.340 12.000 1.000
84.360 9.000 1.000
84.380 8.000 1.000
84.400 14.000 1.000
84.420 10.000 1.000
84.440 14.000 1.000
84.460 8.000 1.000
84.480 8.000 1.000
84.500 15.000 1.000
84.520 18.000 1.000
84.540 15.000 1.000
84.560 13.000 1.000
84.580 9.000 1.000
84.600 13.000 1.000
84.620 7.000 1.000
84.640 10.000 1.000
84.660 9.000 1.000
84.680 14.000 1.000
84.700 14.000 1.000
84.720 18.000 1.000
84.740 12.000 1.000
84.760 11.000 1.000
84.780 13.000 1.000
84.800 10.000 1.000
84.820 8.000 1.000
84.840 8.000 1.000
84.860 13.000 1.000
84.880 11.000 1.000
84.900 10.000 1.000
84.920 14.000 1.000
84.940 10.000 1.000
84.960 13.000 1.000
84.980 15.000 1.000
85.000 11.000 1.000
85.020 12.000 1.000
85.040 11.000 1.000
85.060 9.000 1.000
85.080 21.000 1.000
85.100 13.000 1.000
85.120 14.000 1.000
85.140 9.000 1.000
85.160 15.000 1.000
85.180 16.000 1.000
85.200 16.000 1.000
85.220 17.000 1.000
85.240 12.000 1.000
85.260 10.000 1.000
85.280 11.000 1.000
85.300 11.000 1.000
85.320 15.000 1.000
85.340 5.000 1.000
85.360 7.000 1.000
85.380 11.000 1.000
85.400 11.000 1.000
85.420 12.000 1.000
85.440 13.000 1.000
85.460 13.000 1.000
85.480 20.000 1.000
85.500 12.000 1.000
85.520 10.000 1.000
85.540 16.000 1.000
85.560 9.000 1.000
85.580 10.000 1.000
85.600 11.000 1.000
85.620 5.000 1.000
85.640 12.000 1.000
85.660 12.000 1.000
85.680 12.000 1.000
85.700 8.000 1.000
85.720 15.000 1.000
85.740 16.000 1.000
85.760 8.000 1.000
85.780 10.000 1.000
85.800 10.000 1.000
85.820 10.000 1.000
85.840 12.000 1.000
85.860 10.000 1.000
85.880 13.000 1.000
85.900 6.000 1.000
85.920 14.000 1.000
85.940 11.000 1.000
85.960 5.000 1.000
85.980 6.000 1.000
86.000 13.000 1.000
86.020 12.000 1.000
86.040 12.000 1.000
86.060 11.000 1.000
86.080 16.000 1.000
86.100 16.000 1.000
86.120 10.000 1.000
86.140 14.000 1.000
86.160 13.000 1.000
86.180 10.000 1.000
86.200 14.000 1.000
86.220 9.000 1.000
86.240 13.000 1.000
86.260 10.000 1.000
86.280 14.000 1.000
86.300 15.000 1.000
86.320 15.000 1.000
86.340 10.000 1.000
86.360 16.000 1.000
86.380 17.000 1.000
86.400 13.000 1.000
86.420 18.000 1.000
86.440 14.000 1.000
86.460 19.000 1.000
86.480 15.000 1.000
86.500 15.000 1.000
86.520 16.000 1.000
86.540 9.000 1.000
86.560 19.000 1.000
86.580 13.000 1.000
86.600 16.000 1.000
86.620 13.000 1.000
86.640 14.000 1.000
86.660 15.000 1.000
86.680 15.000 1.000
86.700 12.000 1.000
86.720 15.000 1.000
86.740 15.000 1.000
86.760 7.000 1.000
86.780 10.000 1.000
86.800 13.000 1.000
86.820 22.000 1.000
86.840 16.000 1.000
86.860 13.000 1.000
86.880 13.000 1.000
86.900 17.000 1.000
86.920 16.000 1.000
86.940 15.000 1.000
86.960 10.000 1.000
86.980 11.000 1.000
87.000 17.000 1.000
87.020 16.000 1.000
87.040 15.000 1.000
87.060 11.000 1.000
87.080 8.000 1.000
87.100 16.000 1.000
87.120 12.000 1.000
87.140 12.000 1.000
87.160 18.000 1.000
87.180 13.000 1.000
87.200 10.000 1.000
87.220 10.000 1.000
87.240 19.000 1.000
87.260 11.000 1.000
87.280 9.000 1.000
87.300 15.000 1.000
87.320 11.000 1.000
87.340 17.000 1.000
87.360 16.000 1.000
87.380 11.000 1.000
87.400 11.000 1.000
87.420 11.000 1.000
87.440 10.000 1.000
87.460 11.000 1.000
87.480 10.000 1.000
87.500 18.000 1.000
87.520 8.000 1.000
87.540 13.000 1.000
87.560 14.000 1.000
87.580 16.000 1.000
87.600 15.000 1.000
87.620 5.000 1.000
87.640 11.000 1.000
87.660 16.000 1.000
87.680 13.000 1.000
87.700 7.000 1.000
87.720 13.000 1.000
87.740 11.000 1.000
87.760 10.000 1.000
87.780 8.000 1.000
87.800 10.000 1.000
87.820 8.000 1.000
87.840 10.000 1.000
87.860 7.000 1.000
87.880 12.000 1.000
87.900 8.000 1.000
87.920 16.000 1.000
87.940 8.000 1.000
87.960 8.000 1.000
87.980 9.000 1.000
88.000 14.000 1.000
88.020 8.000 1.000
88.040 11.000 1.000
88.060 15.000 1.000
88.080 12.000 1.000
88.100 12.000 1.000
88.120 14.000 1.000
88.140 14.000 1.000
88.160 9.000 1.000
88.180 11.000 1.000
88.200 10.000 1.000
88.220 17.000 1.000
88.240 7.000 1.000
88.260 14.000 1.000
88.280 6.000 1.000
88.300 7.000 1.000
88.320 10.000 1.000
88.340 12.000 1.000
88.360 7.000 1.000
88.380 8.000 1.000
88.400 9.000 1.000
88.420 8.000 1.000
88.440 7.000 1.000
88.460 13.000 1.000
88.480 14.000 1.000
88.500 10.000 1.000
88.520 9.000 1.000
88.540 11.000 1.000
88.560 9.000 1.000
88.580 10.000 1.000
88.600 7.000 1.000
88.620 11.000 1.000
88.640 11.000 1.000
88.660 8.000 1.000
88.680 7.000 1.000
88.700 8.000 1.000
88.720 9.000 1.000
88.740 10.000 1.000
88.760 8.000 1.000
88.780 9.000 1.000
88.800 10.000 1.000
88.820 7.000 1.000
88.840 9.000 1.000
88.860 11.000 1.000
88.880 11.000 1.000
88.900 6.000 1.000
88.920 7.000 1.000
88.940 6.000 1.000
88.960 12.000 1.000
88.980 12.000 1.000
89.000 6.000 1.000
89.020 6.000 1.000
89.040 16.000 1.000
89.060 6.000 1.000
89.080 10.000 1.000
89.100 16.000 1.000
89.120 8.000 1.000
89.140 5.000 1.000
89.160 10.000 1.000
89.180 13.000 1.000
89.200 13.000 1.000
89.220 10.000 1.000
89.240 10.000 1.000
89.260 12.000 1.000
89.280 11.000 1.000
89.300 11.000 1.000
89.320 7.000 1.000
89.340 12.000 1.000
89.360 14.000 1.000
89.380 11.000 1.000
89.400 10.000 1.000
89.420 6.000 1.000
89.440 10.000 1.000
89.460 16.000 1.000
89.480 9.000 1.000
89.500 7.000 1.000
89.520 12.000 1.000
89.540 8.000 1.000
89.560 5.000 1.000
89.580 6.000 1.000
89.600 10.000 1.000
89.620 10.000 1.000
89.640 6.000 1.000
89.660 11.000 1.000
89.680 11.000 1.000
89.700 11.000 1.000
89.720 9.000 1.000
89.740 16.000 1.000
89.760 7.000 1.000
89.780 2.000 1.000
89.800 10.000 1.000
89.820 10.000 1.000
89.840 9.000 1.000
89.860 8.000 1.000
89.880 11.000 1.000
89.900 8.000 1.000
89.920 10.000 1.000
89.940 8.000 1.000
89.960 5.000 1.000
89.980 7.000 1.000
90.000 6.000 1.000
*RAS_INT_END
*RAS_DATA_END
